"N2Oraw","CO2raw","CH4raw","SampleName","Site","LUtype","Chamber","TimePt","TimePtSq","SampleDate","Pressure","N2Oc","CO2c","CH4c","N2Oppm","CO2ppm","CH4ppm","ngN_cm3_N2O","ngC_cm3_CO2","ngC_cm3_CH4","GCrun"
9.3344,48.6576,6.318,"Eva-P8-1","NA","NA","NA","NA","NA","NA","Y",9.21515,50.058975,2.437875,0.318682244677012,447.324076442512,0.320901755608951,0.358709323300699,0.215789488616651,0.000154803260959597,"20140605_Trav"
7.9968,40.708,5.8188,"Eva-P8-2","NA","NA","NA","NA","NA","NA","Y",6.87435,36.147175,1.564275,0.233603933597979,323.009044289878,0.242965137616058,0.2629450191875,0.15581981868759,0.000117206574738396,"20140605_Trav"
8.3782,36.726,5.5036,"Eva-P8-3","NA","NA","NA","NA","NA","NA","N",7.5418,29.178675,1.012675,0.257862955611692,260.73893534958,0.193755157665416,0.290251019179108,0.125780668836337,9.34676414512913e-05,"20140605_Trav"
9.4156,59.2292,6.3196,"Eva-P8-4","NA","NA","NA","NA","NA","NA","Y",9.35725,68.559275,2.440675,0.32384698664742,643.165733581425,0.321151552461492,0.364522766403265,0.310263659065812,0.000154923763159024,"20140605_Trav"
24.466,180.0086,18.6876,"Eva-P9-1","NA","NA","NA","NA","NA","NA","Y",35.69545,279.923225,24.084675,1.28113063875857,2697.08437464584,2.25208122260594,1.44204301358126,1.30107563757656,0.00108640576472917,"20140605_Trav"
25.601,187.4488,19.0086,"Eva-P9-2","NA","NA","NA","NA","NA","NA","Y",37.6817,292.943575,24.646425,1.35332253699026,2823.60897630181,2.30219671614704,1.5233023475888,1.36211120558332,0.0011105815184892,"20140605_Trav"
26.5502,193.9868,18.969,"Eva-P9-3","NA","NA","NA","NA","NA","NA","Y",39.3428,304.385075,24.577125,1.41369658967882,2934.79118183752,2.29601424404664,1.59125949282224,1.41574558955528,0.00110759908905338,"20140605_Trav"
25.9696,192.598,19.3982,"Eva-P9-4","NA","NA","NA","NA","NA","NA","Y",38.32675,301.954675,25.328225,1.37676741248647,2911.17389106848,2.36302224974085,1.54969194275636,1.40435258979078,0.00113992380404965,"20140605_Trav"
25.5962,186.682,21.9744,"Eva-P9-5","NA","NA","NA","NA","NA","NA","Y",37.6733,291.601675,29.836575,1.35301723204619,2810.56912998723,2.76522640693895,1.52295869577978,1.35582077339768,0.00133394740790193,"20140605_Trav"
125.786,591.6458,5310.3576,"Eva-P11-1","NA","NA","NA","NA","NA","NA","Y",213.00545,1000.288325,9284.507175,8.59382933760646,9697.19630131182,828.403650402203,9.67323017753577,4.67793517289982,0.399622576790658,"20140605_Trav"
129.0798,600.2454,5320.1288,"Eva-P11-2","NA","NA","NA","NA","NA","NA","Y",218.7696,1015.337625,9301.606775,8.82924811634935,9843.43712338659,829.929159780673,9.93821798977089,4.74848186124569,0.400358483722559,"20140605_Trav"
125.8022,589.3224,5303.0234,"Eva-P11-3","NA","NA","NA","NA","NA","NA","Y",213.0338,996.222375,9271.672325,8.59498720518058,9657.68563500077,827.25861285476,9.67453347541609,4.65887519619128,0.39907020977126,"20140605_Trav"
117.5356,560.5252,5270.6094,"Eva-P11-4","NA","NA","NA","NA","NA","NA","Y",198.56725,945.827275,9214.947825,8.00414596516722,9167.97376451242,822.198040868338,9.00948148421356,4.42263780216904,0.39662898583862,"20140605_Trav"
129.2968,597.4352,5304.0236,"Eva-P11-5","NA","NA","NA","NA","NA","NA","Y",219.14935,1010.419775,9273.422675,8.84475782397799,9795.64816131922,827.414767112205,9.95567574532831,4.72542842811048,0.399145538708677,"20140605_Trav"
8.3746,36.0008,5.2892,"screwup","NA","NA","NA","NA","NA","NA","N",7.5355,27.909575,0.637475,0.257633976903645,249.398331883104,0.160282379424879,0.289993280322344,0.120309952745897,7.73203467280831e-05,"20140605_Trav"
8.6456,87.1594,9.1132,"Amb-P8-1","NA","NA","NA","NA","NA","NA","Y",8.00975,117.437125,7.329475,0.274870985203898,1118.13380287683,0.757296856998646,0.309395288706522,0.539388631720095,0.000365320603358439,"20140605_Trav"
8.8556,45.0498,8.8504,"Amb-P8-2","NA","NA","NA","NA","NA","NA","Y",8.37725,43.745325,6.869575,0.288228076506676,390.905668849643,0.716267723968734,0.324430055351088,0.188573204128115,0.000345528117102566,"20140605_Trav"
9.3232,96.2404,9.519,"Amb-P8-3","NA","NA","NA","NA","NA","NA","Y",9.19555,133.328875,8.039625,0.317969866474197,1272.56109080429,0.82065158372444,0.357907469079656,0.613884477674423,0.000395882973688093,"20140605_Trav"
9.3172,93.2736,9.3688,"Amb-P8-4","NA","NA","NA","NA","NA","NA","Y",9.18505,128.136975,7.776775,0.317588235294118,1222.10906153183,0.797201904192123,0.357477904318383,0.589546378811159,0.00038457082971689,"20140605_Trav"
18.7924,174.5256,16.9762,"Amb-P9-1","NA","NA","NA","NA","NA","NA","Y",25.76665,270.327975,21.089725,0.920260194875496,2603.8430113922,1.98489226420642,1.03584657532121,1.256095930125,0.000957513599667143,"20140605_Trav"
19.5448,177.9236,16.4678,"Amb-P9-2","NA","NA","NA","NA","NA","NA","Y",27.08335,276.274475,20.200025,0.968116744857452,2661.62782852441,1.90551931431142,1.08971399638489,1.28397137165708,0.000919224025799237,"20140605_Trav"
18.5662,171.3478,16.5682,"Amb-P9-3","NA","NA","NA","NA","NA","NA","Y",25.3708,264.766825,20.375725,0.905872699386503,2549.80281366333,1.92119406680838,1.01965198382121,1.23002689595766,0.000926785538813277,"20140605_Trav"
18.9952,180.6884,16.1144,"Amb-P9-4","NA","NA","NA","NA","NA","NA","Y",26.12155,281.112875,19.581575,0.93315932876218,2708.64473917982,1.85034543450635,1.05036586425225,1.30665236657994,0.000892608102500814,"20140605_Trav"
80.9882,405.0974,4834.1732,"Amb-P11-1","NA","NA","NA","NA","NA","NA","Y",134.6093,673.828625,8451.184475,5.39198242329217,6524.84045072189,754.060297683903,6.06922537610681,3.14758819906145,0.363759284582664,"20140605_Trav"
78.8932,393.0564,4780.5408,"Amb-P11-2","NA","NA","NA","NA","NA","NA","Y",130.94305,652.756875,8357.327775,5.24224584503412,6320.07677117839,745.687044737505,5.90068160701561,3.04881003794087,0.359720020732323,"20140605_Trav"
81.8134,411.4296,4815.2916,"Amb-P11-3","NA","NA","NA","NA","NA","NA","Y",136.0534,684.909975,8418.141675,5.45096219626522,6632.52291659727,751.112445027063,6.13561311751686,3.19953430585057,0.362337238127226,"20140605_Trav"
84.006,419.1236,4824.9824,"Amb-P11-4","NA","NA","NA","NA","NA","NA","Y",139.89045,698.374475,8435.100575,5.6076745692908,6763.36352372356,752.625402113692,6.31200885408457,3.26265191831314,0.363067089823605,"20140605_Trav"
10.5284,170.1472,17.0854,"ambtrav","NA","NA","NA","NA","NA","NA","Y",11.30465,262.665775,21.280825,0.394626849512811,2529.38596509096,2.00194089939237,0.44419271079409,1.22017779204258,0.000965737874778031,"20140605_Trav"
10.5764,162.9376,16.6498,"ambtrav","NA","NA","NA","NA","NA","NA","Y",11.38865,250.048975,20.518525,0.397679898953446,2406.78284043048,1.93393370628799,0.447629228884277,1.16103394764303,0.00093293115098405,"20140605_Trav"
10.9026,164.1834,13.63,"ambtrav","NA","NA","NA","NA","NA","NA","Y",11.9595,252.229125,15.233875,0.418427914110429,2427.96833930726,1.46247337172281,0.47098323307217,1.17125384907348,0.000705498312340653,"20140605_Trav"
10.8144,172.038,14.4832,"ambtrav","NA","NA","NA","NA","NA","NA","Y",11.80515,265.974675,16.726975,0.412817935763262,2561.54003578948,1.59567754334047,0.464668631081452,1.23568894120352,0.000769756110185062,"20140605_Trav"
10.3176,46.5748,11.8768,"amb","NA","NA","NA","NA","NA","NA","Y",10.93575,46.414075,12.165775,0.381218874052689,414.753462956613,1.18875847055065,0.429100668848021,0.200077398885312,0.000573458027318598,"20140605_Trav"
9.036,47.624,11.3536,"amb","NA","NA","NA","NA","NA","NA","Y",8.69295,48.250175,11.250175,0.29970245398773,431.160745302208,1.10707489976964,0.33734563584004,0.207992284878264,0.000534053808105993,"20140605_Trav"
9.5964,47.1424,10.832,"amb","NA","NA","NA","NA","NA","NA","Y",9.67365,47.407375,10.337375,0.335346806207145,423.629533733738,1.02564112584117,0.377466984542968,0.20435922245527,0.000494770091092815,"20140605_Trav"
9.0236,45.8152,11.9036,"amb","NA","NA","NA","NA","NA","NA","Y",8.67125,45.084775,12.212675,0.298913749548899,402.874915806676,1.19294256783072,0.336457868666741,0.194347178336088,0.000575476439158999,"20140605_Trav"
9.0564,58.4208,9.5104,"Mix1","NA","NA","NA","NA","NA","NA","Y",8.72865,67.144575,8.024575,0.301,600,0.81930892564203,0.338806156028369,0.28944047501237,0.000395235274366173,"20140605_Trav"
29.0076,47.3432,15.6464,"Mix2","NA","NA","NA","NA","NA","NA","Y",43.64325,47.758775,18.762575,1.57,426.769623606971,1.77727985513801,1.76719490021442,0.205874004296087,0.000857361209168438,"20140605_Trav"
46.7304,21.4096,5.5708,"3N2O","NA","NA","NA","NA","NA","NA","Y",74.65815,2.374975,1.130275,2.94346416522601,21.2226378676163,0.204246625472152,3.31316870175242,0.0102378173090306,9.85287338272222e-05,"20140605_Trav"
141.5792,22.6656,5.044,"10N2O","NA","NA","NA","NA","NA","NA","Y",240.64355,4.572975,0.208374999999999,9.72262157042031,40.8638374730945,0.122001011772921,10.9438007999754,0.0197127475484013,5.88533846659065e-05,"20140605_Trav"
4.0654,197.4472,6.7186,"3KCO2","NA","NA","NA","NA","NA","NA","Y",-0.00559999999999879,310.440775,3.138925,-0.0164535366293757,2993.63714452271,0.383444642563985,-0.0185201312241553,1.44413292854221,0.000184973999141114,"20140605_Trav"
61.754,16.4456,3.5294,"Eva-3N2O","NA","NA","NA","NA","NA","NA","Y",100.94945,-6.31202500000001,-2.442175,4.01725054093848,-56.4038866877927,-0.304336989809429,4.52182462982808,-0.027209279592431,-0.000146812404823793,"20140605_Trav"
190.3162,15.91,3.1728,"Eva-10N2O","NA","NA","NA","NA","NA","NA","Y",325.9333,-7.249325,-3.066225,13.206016135844,-64.7795447361161,-0.382104348205357,14.8647161575877,-0.0312497036658442,-0.000184327440081418,"20140605_Trav"
1.6362,266.1104,3.9964,"Eva-3KCO2","NA","NA","NA","NA","NA","NA","Y",-4.2567,430.601375,-1.624925,-0.170963280404186,4161.29178128307,-0.202493590003209,-0.192436584238347,2.00741044973274,-9.76830681291481e-05,"20140605_Trav"
7.5544,67.1444,8.544,"Eva-M1","NA","NA","NA","NA","NA","NA","Y",6.10015,82.410875,6.333375,0.205464994586792,777.767965648757,0.66843162670707,0.231271777456281,0.375195882377968,0.000322451945912309,"20140605_Trav"
29.0804,73.3024,17.368,"Eva-M2","NA","NA","NA","NA","NA","NA","Y",43.77065,93.187375,21.775375,1.68196029589209,882.488066855375,2.04606126847248,1.89321761609149,0.425712942105613,0.000987021575751811,"20140605_Trav"
