"N2Oraw","CO2raw","CH4raw","SampleName","Site","LUtype","Chamber","TimePt","TimePtSq","SampleDate","Pressure","N2Oc","CO2c","CH4c","N2Oppm","CO2ppm","CH4ppm","ngN_cm3_N2O","ngC_cm3_CO2","ngC_cm3_CH4","GCrun"
19.0008,66.036,9.4244,"Mix1Leak","NA","NA","NA","NA","NA","2014.06.05","Y",15.8634,59.0684625,7.8956375,0.198862204615342,578.77365713513,0.903416232387634,0.223839664867279,0.279200870409731,0.000435808705726938,"20140905_Leak12"
17.392,66.4578,8.3776,"Mix1Leak","NA","NA","NA","NA","NA","2014.06.05","Y",13.048,59.8066125,6.0637375,0.151730697841926,585.308500725634,0.743274738985619,0.170788353778488,0.282353284131343,0.000358556322527822,"20140905_Leak12"
18.837,66.8144,8.684,"Mix1Leak","NA","NA","NA","NA","NA","2014.06.05","Y",15.57675,60.4306625,6.5999375,0.194063509432917,590.833216762556,0.790148404994768,0.218438244705454,0.285018411521401,0.000381168216119921,"20140905_Leak12"
47.9108,61.832,15.3434,"Mix2Leak","NA","NA","NA","NA","NA","2014.06.05","Y",66.4559,51.7114625,18.2538875,1.04581139706901,575.182004427382,1.80891632738813,1.17716724043724,0.277468254300048,0.000872622668428089,"20140905_Leak12"
46.2726,57.6196,15.0834,"Mix2Leak","NA","NA","NA","NA","NA","2014.06.05","Y",63.58905,44.3397625,17.7988875,0.99781858603208,493.187240074366,1.76914102333337,1.12314644367838,0.237913915061941,0.00085343503026247,"20140905_Leak12"
46.5132,48.6712,14.5492,"Mix2Leak","NA","NA","NA","NA","NA","2014.06.05","Y",64.0101,28.6800625,16.8640375,1.00486721888246,319.005787853179,1.68741807169471,1.13108039783549,0.153888644613199,0.000814011813692956,"20140905_Leak12"
71.4616,41.3852,5.9596,"3N2OLeak","NA","NA","NA","NA","NA","2014.06.05","Y",107.6698,15.9295625,1.8322375,1.71661494071405,177.183108839771,0.373364411276342,1.93222494831958,0.0854732719779198,0.000180111287587564,"20140905_Leak12"
70.9356,43.1988,5.8582,"3N2OLeak","NA","NA","NA","NA","NA","2014.06.05","Y",106.7493,19.1033625,1.6547875,1.6995143899535,212.485004346046,0.357852042694986,1.91297653679417,0.102502934318208,0.000172628108702973,"20140905_Leak12"
66.981,40.3618,5.4832,"3N2OLeak","NA","NA","NA","NA","NA","2014.06.05","Y",99.82875,14.1386125,0.9985375,1.57094815794273,157.26253106015,0.300483815692927,1.76826214854625,0.0758635694861625,0.000144953630579484,"20140905_Leak12"
191.7812,41.9142,5.5776,"10N2OLeak","NA","NA","NA","NA","NA","2014.06.05","Y",318.2291,16.8553125,1.1637375,5.6282716465867,187.480143865587,0.314925310703578,6.3351929623372,0.0904405698264051,0.00015192021920577,"20140905_Leak12"
191.071,39.998,6.5212,"10N2OLeak","NA","NA","NA","NA","NA","2014.06.05","Y",316.98625,13.5019625,2.8150375,5.60518265200468,150.181129656763,0.459279068034626,6.30920394738406,0.0724474958429131,0.000221556586025301,"20140905_Leak12"
194.9272,42.4832,6.1676,"10N2OLeak","NA","NA","NA","NA","NA","2014.06.05","Y",323.7346,17.8510625,2.1962375,5.73054984562223,198.555782674073,0.405184654520151,6.45031749210708,0.095783466756061,0.000195461398120059,"20140905_Leak12"
0,163.966,5.9832,"3KCO2Leak","NA","NA","NA","NA","NA","2014.06.05","Y",-17.388,230.4459625,1.8735375,-0.357786436545974,2095.97904551366,0.376974785029005,-0.402725073904416,1.01110195091575,0.000181852934744136,"20140905_Leak12"
0,150.3116,5.7676,"3KCO2Leak","NA","NA","NA","NA","NA","2014.06.05","Y",-17.388,206.5507625,1.4962375,-0.357786436545974,1884.43478680769,0.343991879051288,-0.402725073904416,0.909052833039086,0.000165941954788338,"20140905_Leak12"
0,154.1344,6.1828,"3KCO2Leak","NA","NA","NA","NA","NA","2014.06.05","Y",-17.388,213.2406625,2.2228375,-0.357786436545974,1943.66048637568,0.407509979987968,-0.402725073904416,0.937623357398919,0.000196583136966665,"20140905_Leak12"
23.316,75.2464,11.7148,"amb","NA","NA","NA","NA","NA","2014.06.05","Y",23.415,75.1866625,11.9038375,0.325280577333296,721.46811755708,1.25380606472234,0.366136418727517,0.34803679108667,0.000604837038244376,"20140905_Leak12"
22.9436,78.3718,11.9248,"amb","NA","NA","NA","NA","NA","2014.06.05","Y",22.7633,80.6561125,12.2713375,0.314370723328808,769.889170562678,1.2859322718435,0.353856266906616,0.371395145390902,0.00062033474599353,"20140905_Leak12"
23.2808,80.692,11.1624,"amb","NA","NA","NA","NA","NA","2014.06.05","Y",23.3534,84.7164625,10.9371375,0.324249355902152,805.835458136618,1.16929884179984,0.364975673979677,0.388735662974789,0.000564070687003268,"20140905_Leak12"
23.1956,66.994,11.049,"amb","NA","NA","NA","NA","NA","2014.06.05","Y",23.2043,60.7449625,10.7386875,0.32175333130177,593.615715361073,1.15195068995442,0.362166144078654,0.286360691048195,0.000555701924818725,"20140905_Leak12"
22.4872,63.107,8.0532,"Mix1","NA","NA","NA","NA","NA","2014.09.05","Y",21.9646,53.9427125,5.4960375,0.301,600,0.693647398080371,0.338806156028369,0.28944047501237,0.000334616053985796,"20140905_Leak12"
65.8036,59.822,15.2404,"Mix2","NA","NA","NA","NA","NA","2014.09.05","Y",97.7683,48.1939625,18.0736375,1.57,536.057164348196,1.7931591877049,1.76719490021442,0.25859440047121,0.000865021411770171,"20140905_Leak12"
120.4488,33.6282,6.1688,"3N2O","NA","NA","NA","NA","NA","2014.09.05","Y",193.3974,2.3548125,2.1983375,3.30921589169731,26.1923702854209,0.405368232846558,3.72485952071081,0.0126352201618535,0.000195549956450055,"20140905_Leak12"
323.3204,38.079,6.837,"10N2O","NA","NA","NA","NA","NA","2014.09.05","Y",548.4227,10.1437125,3.3676875,9.90468375039292,112.827613183152,0.507590764267293,11.1487303260707,0.0544281299237393,0.000244862186535696,"20140905_Leak12"
0,223.012,5.8098,"3KCO2","NA","NA","NA","NA","NA","2014.09.05","Y",-17.388,333.7764625,1.5700875,-0.357786436545974,3010.76419166089,0.350447716863253,-0.402725073904416,1.45239502964094,0.000169056256059834,"20140905_Leak12"
17.7082,54.586,7.4856,"AU-Mix1Leak","NA","NA","NA","NA","NA","2014.06.05","Y",13.60135,39.0309625,4.5027375,0.16099411308419,434.137929196646,0.606814849690055,0.181215271087212,0.20942848074594,0.000292727963898082,"20140905_Leak12"
17.8736,63.876,9.6524,"AU-Mix1Leak","NA","NA","NA","NA","NA","2014.06.05","Y",13.8908,55.2884625,8.2946375,0.16583968196803,545.309308734255,0.938296114404886,0.186669452373939,0.26305764224785,0.000452634788426019,"20140905_Leak12"
18.154,66.4716,9.5002,"AU-Mix1Leak","NA","NA","NA","NA","NA","2014.06.05","Y",14.3815,59.8307625,8.0282875,0.17405429814112,585.522300729306,0.915012263338983,0.195915839512985,0.282456421422377,0.000441402640238299,"20140905_Leak12"
45.252,51.5624,14.0036,"AU-Mix2Leak","NA","NA","NA","NA","NA","2014.06.05","Y",61.803,33.7396625,15.9092375,0.967919023741585,375.283269264592,1.60395112595518,1.08949144113162,0.181036946200231,0.000773747292988488,"20140905_Leak12"
44.9612,60.1944,14.4812,"AU-Mix2Leak","NA","NA","NA","NA","NA","2014.06.05","Y",61.2941,48.8456625,16.7450375,0.959399728509294,543.305965564857,1.677015299865,1.07990210668071,0.262091227916911,0.000808993508326563,"20140905_Leak12"
47.1362,56.8946,14.2126,"AU-Mix2Leak","NA","NA","NA","NA","NA","2014.06.05","Y",65.10035,43.0710125,16.2749875,1.02311866637117,479.075046513466,1.63592435113766,1.15162426084414,0.231106181715718,0.000789171202129312,"20140905_Leak12"
57.9404,40.1184,5.5334,"AU-3N2OLeak","NA","NA","NA","NA","NA","2014.06.05","Y",84.0077,13.7126625,1.0863875,1.33963919439289,152.524727042601,0.308163509014269,1.50790035188437,0.0735780490772376,0.000148658320717615,"20140905_Leak12"
70.2052,36.8352,5.1596,"AU-3N2OLeak","NA","NA","NA","NA","NA","2014.06.05","Y",105.4711,7.96706250000001,0.432237500000001,1.6757686822054,88.6169285610175,0.250978860338616,1.88624832428816,0.0427488764947303,0.000121072400924121,"20140905_Leak12"
76.538,37.7392,6.4076,"AU-3N2OLeak","NA","NA","NA","NA","NA","2014.06.05","Y",116.5535,9.5490625,2.6162375,1.88165151082974,106.213374049368,0.441900319801469,2.11799041650897,0.0512374157291925,0.000213173064119093,"20140905_Leak12"
179.4896,38.5928,5.598,"AU-10N2OLeak","NA","NA","NA","NA","NA","2014.06.05","Y",296.7188,11.0428625,1.1994375,5.22866493607649,122.828778771553,0.31804614225249,5.88539491080529,0.0592527001213795,0.000153425710815688,"20140905_Leak12"
179.5416,32.7176,5.4368,"AU-10N2OLeak","NA","NA","NA","NA","NA","2014.06.05","Y",296.8098,0.761262499999996,0.9173375,5.23035548482088,8.46745517292998,0.293385453738538,5.88729779559487,0.00408470707899801,0.000141529375153004,"20140905_Leak12"
207.113,37.5584,5.4876,"AU-10N2OLeak","NA","NA","NA","NA","NA","2014.06.05","Y",345.05975,9.2326625,1.0062375,6.12671693964866,102.694084951698,0.301156936223084,6.89624390497095,0.0495397078823001,0.000145278344456133,"20140905_Leak12"
0,164.4568,5.7892,"AU-3KCO2Leak","NA","NA","NA","NA","NA","2014.06.05","Y",-17.388,231.3048625,1.5340375,-0.357786436545974,2103.58288912253,0.347296288926607,-0.402725073904416,1.01477005109253,0.000167536004728251,"20140905_Leak12"
0,159.8806,5.9844,"AU-3KCO2Leak","NA","NA","NA","NA","NA","2014.06.05","Y",-17.388,223.2965125,1.8756375,-0.357786436545974,2032.68494877434,0.377158363355412,-0.402725073904416,0.980568828539567,0.000181941493074131,"20140905_Leak12"
0,162.92,5.594,"AU-3KCO2Leak","NA","NA","NA","NA","NA","2014.06.05","Y",-17.388,228.6154625,1.1924375,-0.357786436545974,2079.77362494546,0.317434214497802,-0.402725073904416,1.00328444320402,0.000153130516382371,"20140905_Leak12"
23.4864,53.5328,10.9052,"AU-ambLeak","NA","NA","NA","NA","NA","2014.06.05","Y",23.7132,37.1878625,10.4870375,0.330272626534061,413.637291598935,1.12995188717336,0.371755478529562,0.19953895693871,0.000545089684940971,"20140905_Leak12"
23.272,56.2964,12.228,"AU-ambLeak","NA","NA","NA","NA","NA","2014.06.05","Y",23.338,42.0241625,12.8019375,0.323991550544366,467.43102694363,1.33231639564889,0.364685487792717,0.225489097456807,0.000642710484038975,"20140905_Leak12"
22.3536,55.896,12.2848,"AU-ambLeak","NA","NA","NA","NA","NA","2014.06.05","Y",21.7308,41.3234625,12.9013375,0.297086045931795,459.6372030791,1.34100576976547,0.334400602099066,0.221729350654287,0.000646902244992079,"20140905_Leak12"
22.3816,75.3356,11.4524,"AU-ambLeak","NA","NA","NA","NA","NA","2014.06.05","Y",21.7798,75.3427625,11.4446375,0.297906335706568,722.850071204005,1.21366360401477,0.335323921784848,0.348703446620021,0.000585472283418767,"20140905_Leak12"
