"N2Oraw","CO2raw","CH4raw","SampleName","Site","LUtype","Chamber","TimePt","TimePtSq","SampleDate","N2Oc","CO2c","CH4c","N2Oppm","CO2ppm","ngN_cm3_N2O","ngC_cm3_CO2","GCrun"
29.139,76.8356,9.098,"Mix1",NA,NA,NA,NA,NA,NA,31.541190464112,81.7006707949019,7.40498869486836,0.301,600,0.344487963105819,0.294294415562636,"20140418_M"
96.6272,64.3406,15.555,"Mix2",NA,NA,NA,NA,NA,NA,148.796703469311,59.9915774274694,18.6235253794231,1.57,440.571002738055,1.79683090390743,0.216095976274401,"20140418_M"
163.7252,30.8142,5.7348,"3N2O",NA,NA,NA,NA,NA,NA,265.374274239058,1.74205778970316,1.56168955014255,2.97178098534089,12.7934650187367,3.40113879879299,0.00627507551785024,"20140418_M"
469.0828,34.376,95.7416,"10N2O",NA,NA,NA,NA,NA,NA,795.909420205853,7.93040903068924,157.941523476019,9.09507105282258,58.2399798204651,10.4091112999653,0.0285661680394058,"20140418_M"
0,260.206,6.2406,"3KCO2",NA,NA,NA,NA,NA,NA,-19.0855619675499,400.292518287775,2.44047781947006,-0.24690898260733,2998.50043339542,-0.282581968408403,1.47073655435069,"20140418_M"
24.233,81.4846,11.6428,"amb",NA,NA,NA,NA,NA,NA,23.0173959814691,89.7779477108838,11.8263813160322,0.208751073521001,667.970171473434,0.238911070144195,0.32763315204508,"20140418_M"
26.0952,72.1364,11.1114,"amb",NA,NA,NA,NA,NA,NA,26.2528240462016,73.5361752725138,10.9031150322824,0.243766554745867,540.040916852074,0.27898552796587,0.264885043341486,"20140418_M"
26.2412,62.1116,11.0412,"amb",NA,NA,NA,NA,NA,NA,26.5064877222036,56.1188628123428,10.7811479771088,0.246511834661467,412.130247644267,0.282127441209326,0.202146050610257,"20140418_M"
26.9564,65.2202,11.78,"amb",NA,NA,NA,NA,NA,NA,27.7490922501258,61.5198142042596,12.0647556745766,0.259959945590489,451.794191692965,0.297518512111518,0.221600845998125,"20140418_M"
15.7806,43.7814,7.6748,"trav_dummy",NA,NA,NA,NA,NA,NA,8.33200656339091,24.271562032534,4.93228908058024,0.0498181696948503,178.247462081169,0.0570158133017908,0.0874287211311681,"20140418_M"
26.6954,60.6906,11.5206,"SD-A-25-T0","SD","S","A",0,0,"2014.03.25",27.2956249937112,53.6499855274191,11.6140682940634,0.255052287659176,393.999106779183,0.291901804189997,0.193252894769634,"20140418_M"
28.2436,89.2968,11.4772,"SD-A-25-T15","SD","S","A",15,225,"2014.03.25",29.9855024127956,103.351039283918,11.5386641602381,0.284163536736793,769.841399609444,0.325218996542868,0.377600041289972,"20140418_M"
30.1966,122.8184,11.6992,"SD-A-25-T30","SD","S","A",30,900,"2014.03.25",33.3786884349321,161.59221929398,11.9243719415563,0.320886356429717,1206.96366492319,0.367247466162528,0.592004443956512,"20140418_M"
30.7484,134.3704,10.8568,"SD-A-25-T45","SD","S","A",45,2025,"2014.03.25",34.3373981364246,181.662923302029,10.4607672794734,0.331262010247718,1357.6019521441,0.379122176626496,0.665891121788235,"20140418_M"
28.6374,65.7012,11.6952,"SD-B-25-T0","SD","S","B",0,0,"2014.03.25",30.6696993690257,62.3555143971155,11.9174222518028,0.291568271194075,457.931474420696,0.333693554318712,0.224611126053958,"20140418_M"
29.7422,124.462,11.2004,"SD-B-25-T15","SD","S","B",15,225,"2014.03.25",32.5892036789368,164.447846813684,11.0577456292973,0.312342142774589,1228.39623840625,0.357468799191113,0.602516921768512,"20140418_M"
31.2752,237.1776,11.2792,"SD-B-25-T30","SD","S","B",30,900,"2014.03.25",35.2526722769579,360.282459408016,11.1946545174409,0.341167581888389,2698.20968430972,0.390458888247406,1.32344673684896,"20140418_M"
32.4768,233.618,10.9184,"SD-B-25-T45","SD","S","B",45,2025,"2014.03.25",37.3403590789032,354.097930496394,10.567792501677,0.36376161165952,2651.79243645727,0.416317264640126,1.30067950880102,"20140418_M"
26.4724,54.9306,11.7696,"SD-C-25-T0","SD","S","C",0,0,"2014.03.25",26.9081797899547,43.6424322824082,12.0466864812175,0.250859154637403,320.504827129019,0.287102854509923,0.157204634641564,"20140418_M"
28.8542,91.841,11.146,"SD-C-25-T15","SD","S","C",15,225,"2014.03.25",31.0463725536643,107.771389451618,10.96322984865,0.295644823835871,803.017813247552,0.338359080285707,0.393872763393458,"20140418_M"
30.7154,115.2382,10.8036,"SD-C-25-T30","SD","S","C",30,900,"2014.03.25",34.2800631959584,148.422209726648,10.3683364057521,0.330641501773643,1108.11772094882,0.37841201815366,0.543521428435388,"20140418_M"
31.1184,121.393,11.3252,"SD-C-25-T45","SD","S","C",45,2025,"2014.03.25",34.9802444386215,159.115697350327,11.2745759496059,0.338219226472183,1188.37642335422,0.387084559503748,0.582887574965746,"20140418_M"
26.4136,64.059,11.917,"SD-D-25-T0","SD","S","D",0,0,"2014.03.25",26.8060193505786,59.5023192688244,12.3027825486332,0.249753521356326,436.977949066269,0.285837481231051,0.214333616890362,"20140418_M"
29.038,103.8332,10.7804,"SD-D-25-T15","SD","S","D",15,225,"2014.03.25",31.3657107978367,128.606906817038,10.328028205182,0.299100868003592,959.396316364811,0.342314447779867,0.47057496369588,"20140418_M"
28.8472,135.7516,11.0928,"SD-D-25-T30","SD","S","D",30,900,"2014.03.25",31.0342105965957,184.062651173906,10.8707989749287,0.295513200826219,1375.6128249202,0.338208440609651,0.674725287250594,"20140418_M"
32.1212,175.2098,11.586,"SD-D-25-T45","SD","S","D",45,2025,"2014.03.25",36.7225316598189,252.618213231595,11.7276957215328,0.357075162769195,1890.14846072526,0.408664769096475,0.927100227626259,"20140418_M"
26.688,62.0636,11.1666,"SD-E-25-T0","SD","S","E",0,0,"2014.03.25",27.2827680676673,56.035466535301,10.9990207508804,0.254913143334687,411.517795313849,0.291742556532452,0.201845648442523,"20140418_M"
27.3192,84.027,11.4376,"SD-E-25-T15","SD","S","E",15,225,"2014.03.25",28.3794291107664,94.1951705181955,11.4698622316787,0.266781778147884,701.123113079255,0.30532595132197,0.343894361335192,"20140418_M"
28.6016,97.5868,10.4468,"SD-E-25-T30","SD","S","E",30,900,"2014.03.25",30.607499645732,117.754271298004,9.74842407974174,0.290895113516141,877.943148316276,0.332923139975453,0.430622942884932,"20140418_M"
29.908,120.4548,10.922,"SD-E-25-T45","SD","S","E",45,2025,"2014.03.25",32.8772683192185,157.485647618648,10.5740472224551,0.315459727774633,1176.1422785247,0.361036807518271,0.57688684079489,"20140418_M"
26.6598,56.124,10.9244,"SM-A-26-T0","SM","S","A",0,0,"2014.03.26",27.2337727549053,45.7158722203589,10.5782170363072,0.25438289063866,335.731923194037,0.291135693837483,0.164673383536849,"20140418_M"
26.6804,82.0832,10.8488,"SM-A-26-T15","SM","S","A",15,225,"2014.03.26",27.2695636571357,90.817968782492,10.4468678999665,0.254770238352779,675.77592621118,0.291579004884162,0.331461802092697,"20140418_M"
26.5376,99.832,10.6868,"SM-A-26-T30","SM","S","A",30,900,"2014.03.26",27.0214597329364,121.655132156633,10.1654054649505,0.252085128955877,907.220596590893,0.288505955492617,0.444983258766839,"20140418_M"
25.4368,117.6152,10.7668,"SM-A-26-T45","SM","S","A",45,2025,"2014.03.26",25.1089051127788,152.552062862653,10.3043992600201,0.231386470523736,1139.11384358768,0.264816790435105,0.558724738096573,"20140418_M"
26.0488,62.4686,11.7992,"SM-B-26-T0","SM","S","B",0,0,"2014.03.26",26.1722076450612,56.7391226228409,12.0981141853933,0.242894082224745,416.685361851751,0.277987002113155,0.204380291732778,"20140418_M"
24.332,118.1604,10.632,"SM-B-26-T15","SM","S","B",15,225,"2014.03.26",23.1894008028677,153.499305576052,10.0701947153279,0.210612598943223,1146.22326136753,0.241041545562703,0.562211841347426,"20140418_M"
27.418,197.1286,11.3044,"SM-B-26-T30","SM","S","B",30,900,"2014.03.26",28.5510864476773,290.700428173738,11.2384375628878,0.268639542912687,2175.97000590684,0.307452122749734,1.06729303528363,"20140418_M"
26.9854,194.6888,11.3008,"SM-B-26-T45","SM","S","B",45,2025,"2014.03.26",27.7994775008385,286.461464908603,11.2321828421097,0.26050524091619,2144.15497014147,0.298142590769465,1.05168805635584,"20140418_M"
26.9258,54.1232,11.1192,"SM-C-26-T0","SM","S","C",0,0,"2014.03.26",27.6959271235117,42.2396374056683,10.9166669273017,0.259384565005438,310.202868554446,0.296860001527616,0.15215161984514,"20140418_M"
28.4556,124.5682,12.0508,"SM-C-26-T15","SM","S","C",15,225,"2014.03.26",30.35383596973,164.632361076639,12.5352496708871,0.288149833600541,1229.78108831127,0.329781226731997,0.603196177757581,"20140418_M"
28.4072,159.7796,11.2704,"SM-C-26-T30","SM","S","C",30,900,"2014.03.26",30.2697447237129,225.809437523059,11.1793651999832,0.287239754505232,1688.93837593682,0.328739660971837,0.828408553779389,"20140418_M"
31.2594,226.6616,11.9408,"SM-C-26-T45","SM","S","C",45,2025,"2014.03.26",35.2252210024317,342.011725046118,12.3441332026664,0.340870489952318,2561.08085567269,0.390118872978593,1.25618632271475,"20140418_M"
28.0808,63.7596,12.23,"SM-D-26-T0","SM","S","D",0,0,"2014.03.26",29.7026500398289,58.9821349907765,12.846595771843,0.281102361598028,433.157777655287,0.321715548076877,0.212459858369122,"20140418_M"
25.2846,84.7136,11.7058,"SM-D-26-T15","SM","S","D",15,225,"2014.03.26",24.8444694176589,95.3880847643803,11.9358389296495,0.228524610228158,710.076389395553,0.26154145347857,0.348285860036652,"20140418_M"
25.4802,117.2656,11.7832,"SM-D-26-T30","SM","S","D",30,900,"2014.03.26",25.1843092466041,151.944659978199,12.0703154263793,0.232202533183579,1134.55505331652,0.265750756426653,0.556488693899034,"20140418_M"
27.192,169.2878,10.7152,"SM-D-26-T45","SM","S","D",45,2025,"2014.03.26",28.1584289766057,242.329197551568,10.2147482622002,0.264390000029635,1812.92547449584,0.302588613208493,0.889223071625613,"20140418_M"
25.6212,60.1948,11.882,"SM-E-26-T0","SM","S","E",0,0,"2014.03.26",25.4292858104142,52.7885714824753,12.2419727632903,0.234853796663713,387.672984582907,0.268785069901498,0.190149990712083,"20140418_M"
26.4612,82.9912,11.0736,"SM-E-26-T15","SM","S","E",15,225,"2014.03.26",26.888720658645,92.395548356532,10.837440464112,0.25064855782196,687.616262498973,0.286861831028233,0.337269376839166,"20140418_M"
26.9096,110.5732,11.3758,"SM-E-26-T30","SM","S","E",30,900,"2014.03.26",27.6677808800101,140.317134051652,11.3624895249874,0.259079951754529,1047.28603726759,0.296511378277314,0.513684053774292,"20140418_M"
26.7968,135.2972,11.1744,"SM-E-26-T45","SM","S","E",45,2025,"2014.03.26",27.4717996289619,183.27316641791,11.0125726458997,0.256958940970422,1369.68744076913,0.294083927497438,0.671818941474388,"20140418_M"
26.1292,55.6088,11.6408,"S1-A-26-T0","S1","S","A",0,0,"2014.03.26",26.3118964091062,44.8207521801107,11.8229064711555,0.244405866507034,329.158268180884,0.279717206392428,0.161449066936504,"20140418_M"
27.7886,79.0228,11.5318,"S1-A-26-T15","S1","S","A",15,225,"2014.03.26",29.1949752033372,85.5007611521046,11.6335274253731,0.275608041109409,635.868255313425,0.31542741759922,0.311887460953829,"20140418_M"
29.9892,93.5676,11.1798,"S1-A-26-T30","S1","S","A",30,900,"2014.03.26",33.0183470212142,110.771223033708,11.0219547270669,0.316986554686597,825.532708219472,0.362784227760522,0.40491610982215,"20140418_M"
32.1206,110.934,10.943,"S1-A-26-T45","S1","S","A",45,2025,"2014.03.26",36.7214892063559,140.943996067416,10.6105330936609,0.357063880796939,1051.99087573966,0.408651857124242,0.515991733255047,"20140418_M"
26.4948,60.1324,11.4728,"S1-B-26-T0","S1","S","B",0,0,"2014.03.26",26.9470980525742,52.680156322321,11.5310195015093,0.25128034826829,386.876796553364,0.287584901473303,0.189759467894028,"20140418_M"
26.8792,94.472,11.5308,"S1-B-26-T15","S1","S","B",15,225,"2014.03.26",27.6149632378836,112.34254788697,11.6317900029348,0.258508331826897,837.326100442688,0.295857171684156,0.41070065894187,"20140418_M"
27.402,94.812,10.9504,"S1-B-26-T30","S1","S","B",30,900,"2014.03.26",28.5232876886634,112.933271516015,10.6233900197048,0.268338690319197,841.759706541642,0.307107803490177,0.412875301468081,"20140418_M"
27.164,126.3544,10.6682,"S1-B-26-T45","S1","S","B",45,2025,"2014.03.26",28.1097811483314,167.735745036056,10.1330894075968,0.263863507991027,1253.0731683523,0.301986054504269,0.614620726229103,"20140418_M"
26.2204,60.2196,11.3076,"S1-C-26-T0","S1","S","C",0,0,"2014.03.26",26.4703493354855,52.8316595589468,11.2439973146906,0.246120726289929,387.989418286956,0.281679826171902,0.190305198498745,"20140418_M"
28.9358,89.4044,11.09,"S1-C-26-T15","S1","S","C",15,225,"2014.03.26",31.1881462246353,103.537985938286,10.8659341921013,0.297179172062672,771.244505539583,0.340115108509447,0.378288251689443,"20140418_M"
29.1456,115.38,11.9228,"S1-C-26-T30","S1","S","C",30,900,"2014.03.26",31.5526574522053,148.668576228409,12.3128595987758,0.301124101694815,1109.96679549244,0.344629994800387,0.544428382288967,"20140418_M"
30.1016,154.3022,11.368,"S1-C-26-T45","S1","S","C",45,2025,"2014.03.26",33.2136333032869,216.292879859131,11.3489376299681,0.319100044155867,1617.51298168268,0.365203070558909,0.793375062682135,"20140418_M"
27.1904,57.6318,12.1392,"S1-D-26-T0","S1","S","D",0,0,"2014.03.26",28.1556491007043,48.3355577729331,12.688837814439,0.264359914770286,354.970582023294,0.302554181282537,0.17410976663079,"20140418_M"
31.1622,92.954,11.7362,"S1-D-26-T15","S1","S","D",15,225,"2014.03.26",35.0563435414221,109.705140625524,11.988656571776,0.339042810446863,817.531353212655,0.388027133476785,0.400991519663083,"20140418_M"
34.4408,118.2952,11.4386,"S1-D-26-T30","S1","S","D",30,900,"2014.03.26",40.7526567478618,153.733510120745,11.4715996541171,0.400691267510469,1147.98105578558,0.458582453750732,0.563074023148994,"20140418_M"
41.0094,154.4298,11.452,"S1-D-26-T45","S1","S","D",45,2025,"2014.03.26",52.1650897765387,216.514574962267,11.4948811147912,0.524202539110541,1619.17688797158,0.599938421771059,0.794191193230207,"20140418_M"
25.7792,64.167,11.7796,"S1-E-26-T0","S1","S","E",0,0,"2014.03.26",25.7037985556767,59.6899608921684,12.0640607056012,0.237824716024431,438.35596680971,0.272185222589622,0.215009521767763,"20140418_M"
26.2286,140.6236,11.4566,"S1-E-26-T15","S1","S","E",15,225,"2014.03.26",26.4845961994801,192.527373293644,11.5028732580077,0.246274913244093,1439.14379231461,0.281856289792425,0.705886635449707,"20140418_M"
26.784,158.8584,11.8864,"S1-E-26-T30","S1","S","E",30,900,"2014.03.26",27.4495606217508,224.208923972832,12.2496174220191,0.256718258895629,1676.92591141224,0.293808472089793,0.822516551734844,"20140418_M"
28.1252,190.72,11.9594,"S1-E-26-T45","S1","S","E",45,2025,"2014.03.26",29.7797915960926,279.5659827352,12.3764492600201,0.281937227544963,2092.40174694874,0.322671034022147,1.02630358206753,"20140418_M"
26.3522,68.377,11.8796,"M1-A-07-T0","M1","M","A",0,0,"2014.04.07",26.6993416128627,67.0045093577058,12.2378029494382,0.248598999528807,492.073139956792,0.284516156072502,0.241357295229425,"20140418_M"
47.9312,125.5444,11.5452,"M1-A-07-T15","M1","M","A",15,225,"2014.04.07",64.1911804104478,166.328432860976,11.6568088860473,0.654355131711914,1242.51075382244,0.748895237446104,0.609439960210778,"20140418_M"
67.8562,190.3806,11.3194,"M1-A-07-T30","M1","M","A",30,900,"2014.04.07",98.809322494969,278.976301559618,11.2644988994634,1.02901062704295,2087.97596486055,1.17768031536302,1.02413277714578,"20140418_M"
87.9264,259.7896,11.0348,"M1-A-07-T45","M1","M","A",45,2025,"2014.04.07",133.679738317542,399.569055584437,10.7700284735033,1.40639635965991,2993.070569926,1.60959009056041,1.46807325685683,"20140418_M"
28.4692,82.4678,11.6952,"M1-B-07-T0","M1","M","B",0,0,"2014.04.07",30.3774649148918,91.4861814522891,11.9174222518028,0.288405558305007,680.791117110172,0.33007389810262,0.333921706550287,"20140418_M"
26.4536,139.6952,11.3204,"M1-B-07-T15","M1","M","B",15,225,"2014.04.07",26.8755162481134,190.914350301861,11.2662363219017,0.250505652840052,1427.03743966088,0.286698279379944,0.699948582151666,"20140418_M"
27.3804,195.2746,11.2544,"M1-B-07-T30","M1","M","B",30,900,"2014.04.07",28.4857593639946,287.479246973,11.1515664409693,0.267932539317985,2151.7938126496,0.306642972489775,1.05543483750835,"20140418_M"
28.042,243.9662,11.4944,"M1-B-07-T45","M1","M","B",45,2025,"2014.04.07",29.6352380492202,372.077125373134,11.5685478261781,0.280372794058813,2786.7331500843,0.320880573872452,1.36686667288847,"20140418_M"
27.226,60.422,11.9518,"M1-D-07-T0","M1","M","D",0,0,"2014.04.07",28.2175013395103,53.1833138604729,12.3632448494885,0.265029311790802,390.571925613552,0.303320291635051,0.191571894306023,"20140418_M"
27.8958,164.5584,11.6028,"M1-D-07-T15","M1","M","D",15,225,"2014.04.07",29.3812268887305,234.112231871541,11.7568844184974,0.277623753485795,1751.2540136594,0.317734356638251,0.858973794086023,"20140418_M"
28.7548,294.5948,11.6388,"M1-D-07-T30","M1","M","D",30,900,"2014.04.07",30.8736727632903,460.040391036391,11.8194316262787,0.293775777098811,3446.93100226508,0.33621999688571,1.69068757466056,"20140418_M"
30.6566,392.6412,11.362,"M1-D-07-T45","M1","M","D",45,2025,"2014.04.07",34.1779027565823,630.388406397786,11.3385130953379,0.329535868492566,4725.45781703101,0.377146644874788,2.31779307754839,"20140418_M"
27.3158,60.0706,11.652,"F1-A-25-T0","F1","F","A",0,0,"2014.03.25",28.3735218744759,52.5727836156297,11.8423656024652,0.266717846971767,386.08826417795,0.305252783479314,0.189372700103071,"20140418_M"
27.1468,96.186,10.9862,"F1-A-25-T15","F1","F","A",15,225,"2014.03.25",28.0798974823914,115.320489946336,10.6855897429985,0.263540091453024,859.676691188588,0.301615911300245,0.421663415676944,"20140418_M"
29.0732,120.542,10.8416,"F1-A-25-T30","F1","F","A",30,900,"2014.03.25",31.4268680676673,157.637150855274,10.4343584584102,0.299762743709271,1177.2793680889,0.343071950150892,0.577444572642789,"20140418_M"
29.0112,155.9436,10.6268,"F1-A-25-T45","F1","F","A",45,2025,"2014.03.25",31.3191478764883,219.144685049472,10.0611601186483,0.298596939909495,1638.91686712627,0.341737713020109,0.803873469277789,"20140418_M"
26.9278,69.7738,11.7842,"F1-B-25-T0","F1","F","B",0,0,"2014.03.25",27.6994019683884,69.431341019621,12.0720528488177,0.259422171579624,509.895502771956,0.29690304143506,0.250098998310482,"20140418_M"
29.075,97.8796,11.8312,"F1-B-25-T15","F1","F","B",15,225,"2014.03.25",31.4299954280564,118.262988587959,12.1537117034211,0.299796589626038,881.761265568551,0.343110686067592,0.432495693860445,"20140418_M"
28.946,129.9468,11.244,"F1-B-25-T30","F1","F","B",30,900,"2014.03.25",31.2058679335066,173.977261403656,11.1334972476103,0.297370965591022,1299.91812879313,0.340334612037415,0.637597743320748,"20140418_M"
30.426,158.5352,11.586,"F1-B-25-T45","F1","F","B",45,2025,"2014.03.25",33.7772531422941,223.647389040751,11.7276957215328,0.325199830488886,1672.71137761465,0.372184143546425,0.820449362133458,"20140418_M"
28.677,68.5872,12.431,"F1-C-25-T0","F1","F","C",0,0,"2014.03.25",30.7385012975851,67.3697155542512,13.1958176819554,0.292312881362964,494.755170787081,0.334545744486115,0.24267280638896,"20140418_M"
26.6672,92.0532,11.2144,"F1-C-25-T15","F1","F","C",15,225,"2014.03.25",27.2466296809492,108.14007049304,11.0820695434345,0.254522034963149,805.784905054017,0.291294941495028,0.39522999617011,"20140418_M"
28.1616,114.6558,10.6576,"F1-C-25-T30","F1","F","C",30,900,"2014.03.25",29.8430337728492,147.410334898541,10.1146727297501,0.282621667195154,1100.52321450167,0.323454360337639,0.539796393708138,"20140418_M"
28.2312,133.0012,10.1762,"F1-C-25-T45","F1","F","C",45,2025,"2014.03.25",29.9639583745598,179.284044499413,9.27827756791883,0.283930375976837,1339.74755958325,0.324952149116712,0.657133708415036,"20140418_M"
27.0064,60.6828,11.8998,"F1-D-25-T0","F1","F","D",0,0,"2014.03.25",27.8359633720443,53.6364336323998,12.2728988826933,0.260900109945146,393.89958327549,0.298594509797633,0.193204079417377,"20140418_M"
27.3368,102.0082,11.379,"F1-D-25-T15","F1","F","D",15,225,"2014.03.25",28.4100077456817,125.436110867013,11.3680492767902,0.267112716000723,935.598283627782,0.305704702507483,0.458902250136073,"20140418_M"
26.4336,106.6864,10.0968,"F1-D-25-T30","F1","F","D",30,900,"2014.03.25",26.840767799346,133.564120518196,9.14032622631226,0.250129587098189,996.602095545792,0.286267880305498,0.488824052095246,"20140418_M"
28.8616,133.2708,10.0084,"F1-D-25-T45","F1","F","D",45,2025,"2014.03.25",31.0592294797082,179.752453588798,8.98673808276035,0.29578396816036,1343.26314841936,0.338518327943252,0.658858072018173,"20140418_M"
