"N2Oraw","CO2raw","CH4raw","SampleName","Site","LUtype","Chamber","TimePt","TimePtSq","SampleDate","Pressure","N2Oc","CO2c","CH4c","N2Oppm","CO2ppm","CH4ppm","ngN_cm3_N2O","ngC_cm3_CO2","ngC_cm3_CH4","GCrun"
23.2156,61.1352,7.7592,"Mix1Leak","NA","NA","NA","NA","NA","2014.06.05","Y",20.2439125,60.8628375,5.840475,0.209365045378796,557.71391217056,0.94524790566148,0.243700627144582,0.278219242616545,0.000483667698615801,"20140701_Leak4"
24.1396,62.5856,7.9326,"Mix1Leak","NA","NA","NA","NA","NA","2014.06.05","Y",21.8609125,63.4010375,6.143925,0.229186081677046,580.972595301647,0.966683261403851,0.266772286350156,0.289821989228701,0.0004946358151478,"20140701_Leak4"
25.6634,61.939,8.0236,"Mix1Leak","NA","NA","NA","NA","NA","2014.06.05","Y",24.5275625,62.2694875,6.303175,0.261873630498771,570.603687060775,0.977932496539698,0.304820548576837,0.284649391352653,0.000500391862462748,"20140701_Leak4"
72.6582,53.1688,13.0796,"Mix2Leak","NA","NA","NA","NA","NA","2014.06.05","Y",106.7684625,46.9216375,15.151175,1.26997496884184,429.964344261371,1.6462775363305,1.47824913086482,0.214490532873662,0.000842372950535818,"20140701_Leak4"
72.866,52.984,12.862,"Mix2Leak","NA","NA","NA","NA","NA","2014.06.05","Y",107.1321125,46.5982375,14.770375,1.27443255687515,427.000882704128,1.60806866479272,1.48343775725326,0.213012190641225,0.000822822103765677,"20140701_Leak4"
72.3966,52.8118,12.6348,"Mix2Leak","NA","NA","NA","NA","NA","2014.06.05","Y",105.741920885041,46.4061431179775,14.3436290164347,1.25739171676283,425.240634353832,1.56524964571365,1.46360224261456,0.212134079207837,0.000800912320849557,"20140701_Leak4"
123.5332,32.1848,5.392,"3N2OLeak","NA","NA","NA","NA","NA","2014.06.05","Y",194.58779714699,10.5683304817206,1.75982577980882,2.51078449856098,96.8424276648584,0.656995581737849,2.92254973038673,0.0483104801406221,0.000336173758351279,"20140701_Leak4"
119.221,29.5338,5.1472,"3N2OLeak","NA","NA","NA","NA","NA","2014.06.05","Y",187.095684108251,5.96242359760188,1.33450476689586,2.40970406303395,54.636404203741,0.626951399116347,2.80489224135642,0.0272557285467312,0.000320800647680205,"20140701_Leak4"
119.067,30.1682,5.4272,"3N2OLeak","NA","NA","NA","NA","NA","2014.06.05","Y",186.828121052742,7.06464439250377,1.82098304963944,2.40609421491207,64.7365555744437,0.661315660284732,2.80069038306815,0.0322942552955672,0.000338384270996793,"20140701_Leak4"
318.4524,28.7912,5.7568,"10N2OLeak","NA","NA","NA","NA","NA","2014.06.05","Y",533.244788896109,4.67221369486835,2.39363748532618,7.07980208322316,42.8136229807211,0.701767304860088,8.24087996455849,0.0213578565989291,0.000359082707586605,"20140701_Leak4"
322.0286,28.859,4.6952,"10N2OLeak","NA","NA","NA","NA","NA","2014.06.05","Y",539.458159020208,4.79001093618984,0.549189824752641,7.16363025759627,43.8930527772748,0.57147766323024,8.33845584514616,0.0218963372319226,0.000292415655754856,"20140701_Leak4"
344.2296,30.7756,4.9472,"10N2OLeak","NA","NA","NA","NA","NA","2014.06.05","Y",578.030674574459,8.11995478156968,0.987020279221867,7.68403440145222,74.4068455217401,0.602405498281786,8.94420555850866,0.0371183428542731,0.000308240916739785,"20140701_Leak4"
0,191.2888,4.9546,"3KCO2Leak","NA","NA","NA","NA","NA","2014.06.05","Y",-20.0415564166527,286.999190116133,0.999877205265805,-0.284450502975561,2534.87156189251,0.603313696612665,-0.331099997333923,1.26453730253061,0.000308705626784581,"20140701_Leak4"
0,194.984,4.9648,"3KCO2Leak","NA","NA","NA","NA","NA","2014.06.05","Y",-20.0415564166527,293.419313510398,1.01759891413718,-0.284450502975561,2591.33493941492,0.604565537555228,-0.331099997333923,1.29270442869879,0.000309346173062542,"20140701_Leak4"
0,198.476,4.7564,"3KCO2Leak","NA","NA","NA","NA","NA","2014.06.05","Y",-20.0415564166527,299.486392665185,0.655520077980882,-0.284450502975561,2644.69338126062,0.578988708885616,-0.331099997333923,1.31932263734224,0.000296258933422624,"20140701_Leak4"
26.9184,55.7188,9.791,"amb","NA","NA","NA","NA","NA","2014.06.05","Y",26.7270757483649,51.456830146319,9.40274708619822,0.288835060266441,471.522380940579,1.06948934383409,0.336203616037826,0.235222032011851,0.000547239984905725,"20140701_Leak4"
27.325,60.4468,10.6004,"amb","NA","NA","NA","NA","NA","2014.06.05","Y",27.4335117118061,59.6713634349321,10.8090168078149,0.29749448690451,546.795892417065,1.21059223023303,0.346283176828845,0.27277271686131,0.000619439995002405,"20140701_Leak4"
27.1326,66.5372,10.414,"amb","NA","NA","NA","NA","NA","2014.06.05","Y",27.0992316346638,70.2529610535804,10.4851612653027,0.293396912666526,628.642754974119,1.17809707576705,0.341513606006926,0.313602561005848,0.000602812762630251,"20140701_Leak4"
27.3354,63.2906,10.4646,"amb","NA","NA","NA","NA","NA","2014.06.05","Y",27.4515809051652,64.6122453651685,10.5730748406842,0.297715977403861,592.071444857172,1.18691818529484,0.346540991467867,0.295358723116575,0.000607326378284924,"20140701_Leak4"
27.4896,63.7886,8.1868,"Mix1","NA","NA","NA","NA","NA","2014.07.01","Y",27.7194914451618,65.4774817394768,6.61557401056515,0.301,600,1,0.35036358928876,0.299313934845642,0.000511683438512707,"20140701_Leak4"
87.075,58.8692,13.8904,"Mix2","NA","NA","NA","NA","NA","2014.07.01","Y",131.244502404411,56.9304057961597,16.525136630052,1.57,521.679248655368,1.78413867976667,1.827477857752,0.260243114403927,0.00091291421444653,"20140701_Leak4"
142.4988,27.6136,5.462,"3N2O","NA","NA","NA","NA","NA","2014.07.01","Y",227.539056144139,2.62622503144391,1.88144535049472,2.95534901505637,24.0652966028216,0.665586647029946,3.4400222209839,0.0120051310323633,0.000340569664180426,"20140701_Leak4"
403.1384,27.3644,5.1292,"10N2O","NA","NA","NA","NA","NA","2014.07.01","Y",680.380145511907,2.19325935980212,1.3032311630052,9.06489038224501,20.0978348727158,0.624742268041237,10.5515200359884,0.0100259367293842,0.000319670271895567,"20140701_Leak4"
0,221.897,5.6612,"3KCO2","NA","NA","NA","NA","NA","2014.07.01","Y",-20.0415564166527,340.178563594248,2.22753990021801,-0.284450502975561,3002.57083443025,0.690034364261168,-0.331099997333923,1.49785215184347,0.000353079156197084,"20140701_Leak4"
25.0404,62.31,8.2868,"AU-Mix1Leak","NA","NA","NA","NA","NA","2014.06.05","Y",23.4641964091062,62.908528922103,6.78931625440215,0.248838987402954,576.459514790793,0.807261815144577,0.289648241798936,0.287570609418737,0.000413062501353186,"20140701_Leak4"
25.7284,61.3336,7.9808,"AU-Mix1Leak","NA","NA","NA","NA","NA","2014.06.05","Y",24.6595430467047,61.2121096532785,6.25766498826094,0.263491435821527,560.914452056943,0.974717722140402,0.306703671765047,0.279815852928252,0.000498746915644074,"20140701_Leak4"
25.2562,62.2828,8.3512,"AU-Mix1Leak","NA","NA","NA","NA","NA","2014.06.05","Y",23.8391321713064,62.8612710317793,6.90120625943317,0.253434915264478,576.026469208695,0.818488681816299,0.294997895558655,0.287354581790161,0.000418807103095497,"20140701_Leak4"
78.7068,55.5256,13.9422,"AU-Mix2Leak","NA","NA","NA","NA","NA","2014.06.05","Y",116.705403955643,51.1211601312259,16.6151351123595,1.39178107724375,468.446483644205,1.79316898556784,1.62003127484152,0.233687600473586,0.000917534872369693,"20140701_Leak4"
78.059,54.766,13.862,"AU-Mix2Leak","NA","NA","NA","NA","NA","2014.06.05","Y",115.579901700067,49.8014140470401,16.4757938328023,1.37798477479383,456.353048932374,1.77918770129653,1.60397239761471,0.227654711257924,0.000910380880758928,"20140701_Leak4"
78.0812,55.3476,13.7124,"AU-Mix2Leak","NA","NA","NA","NA","NA","2014.06.05","Y",115.618472478199,50.8118989371961,16.2158754360221,1.37845757182129,465.612582408415,1.75310789921439,1.60452273270955,0.232273890257173,0.000897036277953809,"20140701_Leak4"
123.9268,29.3906,4.9316,"AU-3N2OLeak","NA","NA","NA","NA","NA","2014.06.05","Y",195.271646618732,5.7136247044273,0.959916489183297,2.52001070778677,52.3565465803415,0.600490918016691,2.93328902533648,0.0261184066198186,0.000307261257726432,"20140701_Leak4"
120.7488,28.2416,4.8442,"AU-3N2OLeak","NA","NA","NA","NA","NA","2014.06.05","Y",189.750118109593,3.71732632274023,0.808065768069763,2.44551656927165,34.0635548953835,0.589764359351988,2.84657794975132,0.0169928277509463,0.000301772655305469,"20140701_Leak4"
117.5292,28.7212,4.8024,"AU-3N2OLeak","NA","NA","NA","NA","NA","2014.06.05","Y",184.156312827017,4.55059412418246,0.735441510145898,2.37004730295218,41.6991674385566,0.584634266077565,2.75873182673246,0.0208019031430361,0.000299147671538921,"20140701_Leak4"
331.8058,28.2256,4.8642,"AU-10N2OLeak","NA","NA","NA","NA","NA","2014.06.05","Y",556.445285684639,3.68952756372632,0.842814216837162,7.39281342030554,33.8088222000316,0.592218949435444,8.6052247338218,0.0168657526753136,0.000303028628399511,"20140701_Leak4"
328.912,29.4088,5.2208,"AU-10N2OLeak","NA","NA","NA","NA","NA","2014.06.05","Y",551.417532632484,5.74524579280563,1.46237905835988,7.32498109241534,52.6463050213043,0.635984290623465,8.52626799671408,0.0262629545183508,0.000325422628666279,"20140701_Leak4"
326.4824,28.1068,4.7774,"AU-10N2OLeak","NA","NA","NA","NA","NA","2014.06.05","Y",547.19629107622,3.48312177804796,0.692005949186651,7.26802987814965,31.9174319370437,0.581566028473245,8.45997686101815,0.0159222202387409,0.000297577705171369,"20140701_Leak4"
0,196.6708,5.4104,"AU-3KCO2Leak","NA","NA","NA","NA","NA","2014.06.05","Y",-20.0415564166527,296.34999767944,1.79179435267483,-0.284450502975561,2617.10957277842,0.659253804614629,-0.331099997333923,1.30556227358418,0.000337329253597798,"20140701_Leak4"
0,196.9928,5.4416,"AU-3KCO2Leak","NA","NA","NA","NA","NA","2014.06.05","Y",-20.0415564166527,296.909447704595,1.84600193275197,-0.284450502975561,2622.02979565193,0.66308296514482,-0.331099997333923,1.30801675903182,0.000339288571624503,"20140701_Leak4"
0,195.7512,5.0384,"AU-3KCO2Leak","NA","NA","NA","NA","NA","2014.06.05","Y",-20.0415564166527,294.752264005115,1.14547320560121,-0.284450502975561,2603.0579052179,0.613598429062346,-0.331099997333923,1.29855250706971,0.000313968154048617,"20140701_Leak4"
26.462,58.572,9.981,"AU-ambLeak","NA","NA","NA","NA","NA","2014.06.05","Y",25.9341161474929,56.4140438474761,9.73285734948851,0.279115034891098,516.947588839206,1.10261208712023,0.324889519763795,0.25788269487405,0.00056418834408335,"20140701_Leak4"
26.6688,55.7764,10.0236,"AU-ambLeak","NA","NA","NA","NA","NA","2014.06.05","Y",26.2934151077478,51.5569056787691,9.80687154536307,0.283519288282029,472.439418643846,1.11003855482543,0.330016064701283,0.235679502284129,0.000567988344614754,"20140701_Leak4"
26.5884,50.8384,9.3552,"AU-ambLeak","NA","NA","NA","NA","NA","2014.06.05","Y",26.1537263437028,42.9775136780983,8.6455783875566,0.281806996344742,393.822540540867,0.99351623054936,0.328022959222686,0.196460957066991,0.00050836580106568,"20140701_Leak4"
26.4718,52.027,9.8196,"AU-ambLeak","NA","NA","NA","NA","NA","2014.06.05","Y",25.9511428873889,45.0426139883448,9.4524373679356,0.279323747092409,412.745995646821,1.07447518834979,0.325132460481336,0.205901046748054,0.00054979115897141,"20140701_Leak4"
