"N2Oraw","CO2raw","CH4raw","SampleName","Site","LUtype","Chamber","TimePt","TimePtSq","SampleDate","Pressure","N2Oc","CO2c","CH4c","N2Oppm","CO2ppm","CH4ppm","ngN_cm3_N2O","ngC_cm3_CO2","ngC_cm3_CH4","GCrun"
19.0008,66.036,9.4244,"Mix1Leak","NA","NA","NA","NA","NA","2014.06.05","Y",15.8634,59.0684625,7.8956375,0.197975030374727,579.989391408287,0.903567459187214,0.230442665221397,0.289331511518573,0.000462340504445104,"20140905_Leak12"
17.392,66.4578,8.3776,"Mix1Leak","NA","NA","NA","NA","NA","2014.06.05","Y",13.048,59.8066125,6.0637375,0.150502328841724,586.564664905669,0.742690132906686,0.175184505412969,0.292611629823885,0.000380022240955152,"20140905_Leak12"
18.837,66.8144,8.684,"Mix1Leak","NA","NA","NA","NA","NA","2014.06.05","Y",15.57675,60.4306625,6.5999375,0.193141596441916,592.123561371212,0.78977917835219,0.224816554718774,0.295384721781388,0.000404116925644989,"20140905_Leak12"
47.9108,61.832,15.3434,"Mix2Leak","NA","NA","NA","NA","NA","2014.06.05","Y",66.4559,51.7114625,18.2538875,1.05105546381524,573.547933759178,1.8132282293959,1.22342712572715,0.286118148126746,0.000927798855225599,"20140905_Leak12"
46.2726,57.6196,15.0834,"Mix2Leak","NA","NA","NA","NA","NA","2014.06.05","Y",63.58905,44.3397625,17.7988875,1.0027152228584,491.786113480115,1.77327016211185,1.16715915121312,0.245330727880298,0.000907352973961377,"20140905_Leak12"
46.5132,48.6712,14.5492,"Mix2Leak","NA","NA","NA","NA","NA","2014.06.05","Y",63.7166755492202,29.0153155186148,16.8252174849069,1.00486721888246,321.817899910917,1.68776253139637,1.16966407164874,0.160540969876829,0.000863600135457804,"20140905_Leak12"
71.4616,41.3852,5.9596,"3N2OLeak","NA","NA","NA","NA","NA","2014.06.05","Y",107.062585510649,16.3564556326513,1.90145370828442,1.67540004493803,181.41454289232,0.796093054318789,1.95016336624265,0.0904998344522064,0.000407347631409921,"20140905_Leak12"
70.9356,43.1988,5.8582,"3N2OLeak","NA","NA","NA","NA","NA","2014.06.05","Y",106.148701308066,19.5074449668791,1.72527907303371,1.66093903896619,216.363146829862,0.786217163846839,1.93333077502332,0.107934174722052,0.000402294301814859,"20140905_Leak12"
66.981,40.3618,5.4832,"3N2OLeak","NA","NA","NA","NA","NA","2014.06.05","Y",99.2778905332886,14.5783775092236,1.07374565864498,1.55221756707223,161.693324724213,0.749693900267141,1.80677913008802,0.0806617754357971,0.000383605952720693,"20140905_Leak12"
191.7812,41.9142,5.5776,"10N2OLeak","NA","NA","NA","NA","NA","2014.06.05","Y",316.108558326346,17.2755521025491,1.2377583368271,4.98327543301574,191.608528050547,0.75888802315227,5.80052580440497,0.0955851708013179,0.000388310433132664,"20140905_Leak12"
191.071,39.998,6.5212,"10N2OLeak","NA","NA","NA","NA","NA","2014.06.05","Y",314.874640910615,13.9463032261446,2.87719014967298,4.96375032571308,154.682792019935,0.850790293855743,5.77779860614647,0.0771645252206615,0.000435335303013343,"20140905_Leak12"
194.9272,42.4832,6.1676,"10N2OLeak","NA","NA","NA","NA","NA","2014.06.05","Y",321.574489317458,18.2641454699816,2.26283757546537,5.06976654477885,202.573324940964,0.816351291184327,5.90120134048104,0.101055031638075,0.000417713435707485,"20140905_Leak12"
0,163.966,5.9832,"3KCO2Leak","NA","NA","NA","NA","NA","2014.06.05","Y",-17.0964018111689,229.33108806599,1.94245687782995,-0.357786436545973,2096.65040811037,0.798391585040071,-0.416462923943795,1.04592780607873,0.000408523751512914,"20140905_Leak12"
0,150.3116,5.7676,"3KCO2Leak","NA","NA","NA","NA","NA","2014.06.05","Y",-17.0964018111689,205.607627123512,1.56786860011739,-0.357786436545973,1885.32717570335,0.777393143365984,-0.416462923943795,0.94050782571865,0.000397779196673708,"20140905_Leak12"
0,154.1344,6.1828,"3KCO2Leak","NA","NA","NA","NA","NA","2014.06.05","Y",-17.0964018111689,212.249445620912,2.28924639652859,-0.357786436545973,1944.4909949005,0.817831700801425,-0.416462923943795,0.970022084925975,0.000418470936790768,"20140905_Leak12"
23.316,75.2464,11.7148,"amb","NA","NA","NA","NA","NA","2014.06.05","Y",23.4133397618648,75.1876643027838,11.9006673255911,0.325280577333297,723.575600732663,1.25528889049617,0.378626148174132,0.360960433689321,0.000642310535815881,"20140905_Leak12"
22.9436,78.3718,11.9248,"amb","NA","NA","NA","NA","NA","2014.06.05","Y",22.7663236458159,80.6178043916653,12.2655260376488,0.314370723328809,771.946062310244,1.28733075635457,0.365927092999286,0.385090355664464,0.000658705827914668,"20140905_Leak12"
23.2808,80.692,11.1624,"amb","NA","NA","NA","NA","NA","2014.06.05","Y",23.3521824920342,84.6489719331712,10.9409151706356,0.324249355902153,807.854792377531,1.17100352525722,0.377425807835371,0.403003661150714,0.000599183110314117,"20140905_Leak12"
23.1956,66.994,11.049,"amb","NA","NA","NA","NA","NA","2014.06.05","Y",23.2041541002851,60.8497593723797,10.7438914661244,0.32175333130177,595.856781662201,1.15370091769369,0.374520438606325,0.29724706320629,0.000590329652580772,"20140905_Leak12"
22.4872,63.107,8.0532,"Mix1","NA","NA","NA","NA","NA","2014.09.05","Y",21.9733640449438,54.0963983544357,5.53892132525574,0.301,600,1,0.35036358928876,0.299313934845642,0.000511683438512707,"20140905_Leak12"
65.8036,59.822,15.2404,"Mix2","NA","NA","NA","NA","NA","2014.09.05","Y",97.2322493543519,48.3889656443904,18.0261238743082,1.57,536.697086493812,1.79322604416458,1.827477857752,0.267734861297758,0.000917564068308671,"20140905_Leak12"
120.4488,33.6282,6.1688,"3N2O","NA","NA","NA","NA","NA","2014.09.05","Y",192.174045983565,2.87926977821567,2.26492248239141,3.02217607486865,31.934877727174,0.816468165627782,3.51780882742059,0.0159309231855582,0.000417773238424586,"20140905_Leak12"
323.3204,38.079,6.837,"10N2O","NA","NA","NA","NA","NA","2014.09.05","Y",544.647715931578,10.6121895669126,3.42586815571021,8.59960462832084,117.70309916807,0.881547751558326,10.0099280532981,0.0587169629258699,0.000451073384730509,"20140905_Leak12"
0,223.012,5.8098,"3KCO2","NA","NA","NA","NA","NA","2014.09.05","Y",-17.0964018111689,331.918933361982,1.6411878270166,-0.357786436545973,3010.47976573173,0.781503227960819,-0.416462923943795,1.50179757409059,0.000399882258891772,"20140905_Leak12"
17.7082,54.586,7.4856,"AU-Mix1Leak","NA","NA","NA","NA","NA","2014.06.05","Y",13.6702222119738,39.2918217570854,4.55276034923696,0.16099411308419,435.797830750005,0.94471838824577,0.187396927955274,0.217400605864965,0.000483396753323778,"20140905_Leak12"
17.8736,63.876,9.6524,"AU-Mix1Leak","NA","NA","NA","NA","NA","2014.06.05","Y",13.9575918832802,55.4324762095422,8.31740728869697,0.165839681968031,547.600846678233,0.940607251703984,0.193037163524338,0.273174273573445,0.000481293152841882,"20140905_Leak12"
18.154,66.4716,9.5002,"AU-Mix1Leak","NA","NA","NA","NA","NA","2014.06.05","Y",14.4447651349992,59.9421298905752,8.05297159357706,0.17405429814112,587.771823215882,0.917384527972327,0.202598965541059,0.293213828663571,0.000469410469711237,"20140905_Leak12"
45.252,51.5624,14.0036,"AU-Mix2Leak","NA","NA","NA","NA","NA","2014.06.05","Y",61.525438369948,34.03855127243,15.8772798025323,0.967919023741585,377.532171913685,1.60451471228998,1.12665642292018,0.188334399843844,0.000821003605128763,"20140905_Leak12"
44.9612,60.1944,14.4812,"AU-Mix2Leak","NA","NA","NA","NA","NA","2014.06.05","Y",61.02019592487,49.0359817604394,16.7070727590978,0.959399728509294,543.87334372051,1.67738707007079,1.11673997489428,0.271314784277737,0.000858291183730577,"20140905_Leak12"
47.1362,56.8946,14.2126,"AU-Mix2Leak","NA","NA","NA","NA","NA","2014.06.05","Y",64.7990897283247,43.3028351983062,16.2404010921516,1.02311866637117,480.285229873411,1.63640399783476,1.1909087316217,0.239593436669424,0.000837320824408033,"20140905_Leak12"
57.9404,40.1184,5.5334,"AU-3N2OLeak","NA","NA","NA","NA","NA","2014.06.05","Y",83.5705492369613,14.1554888877243,1.16096426505115,1.33963919439289,157.00293533383,0.754583147818343,1.55933819435015,0.0783219439284744,0.000386107699719432,"20140905_Leak12"
70.2052,36.8352,5.1596,"AU-3N2OLeak","NA","NA","NA","NA","NA","2014.06.05","Y",104.879687959081,8.45118353806809,0.511515757588462,1.64085858504636,93.7347083555901,0.718176758682101,1.9099571540602,0.046760173982534,0.000367479153342368,"20140905_Leak12"
76.538,37.7392,6.4076,"AU-3N2OLeak","NA","NA","NA","NA","NA","2014.06.05","Y",115.88243677679,10.0218134223545,2.67981896067416,1.81496249876964,111.155053503107,0.839726179875334,2.11261387207118,0.0554504274033216,0.00042967397912775,"20140905_Leak12"
179.4896,38.5928,5.598,"AU-10N2OLeak","NA","NA","NA","NA","NA","2014.06.05","Y",294.752856682878,11.5048772157471,1.27320175456985,4.64534976570887,127.604175868064,0.760874888691006,5.40718078875568,0.063656179969676,0.000389327079323387,"20140905_Leak12"
179.5416,32.7176,5.4368,"AU-10N2OLeak","NA","NA","NA","NA","NA","2014.06.05","Y",294.843202649673,1.29717290583598,0.993129257504612,4.64677937086198,14.387348643845,0.745174755120213,5.40884484720322,0.00717722322430894,0.000381293580992775,"20140905_Leak12"
207.113,37.5584,5.4876,"AU-10N2OLeak","NA","NA","NA","NA","NA","2014.06.05","Y",342.746371666946,9.70768744549723,1.0813903173738,5.40478351544728,107.670984473604,0.750122439893143,6.29116063721206,0.0537123767191641,0.000383825229350065,"20140905_Leak12"
0,164.4568,5.7892,"AU-3KCO2Leak","NA","NA","NA","NA","NA","2014.06.05","Y",-17.0964018111689,230.183814998742,1.60539692478618,-0.357786436545973,2104.24630704883,0.779496883348174,-0.416462923943795,1.04971707007866,0.000398855645581532,"20140905_Leak12"
0,159.8806,5.9844,"AU-3KCO2Leak","NA","NA","NA","NA","NA","2014.06.05","Y",-17.0964018111689,222.233022436274,1.94454178475599,-0.357786436545973,2033.42244249667,0.798508459483526,-0.416462923943795,1.01438612077853,0.000408583554230015,"20140905_Leak12"
0,162.92,5.594,"AU-3KCO2Leak","NA","NA","NA","NA","NA","2014.06.05","Y",-17.0964018111689,227.513744195455,1.26625206481637,-0.357786436545973,2080.46191933768,0.760485307212823,-0.416462923943795,1.03785207228913,0.000389127736933049,"20140905_Leak12"
23.4864,53.5328,10.9052,"AU-ambLeak","NA","NA","NA","NA","NA","2014.06.05","Y",23.7093965453631,37.4619684449941,10.4940501194868,0.330272626534061,415.502357841415,1.13175986859637,0.384436886632225,0.20727607610526,0.000579102781134078,"20140905_Leak12"
23.272,56.2964,12.228,"AU-ambLeak","NA","NA","NA","NA","NA","2014.06.05","Y",23.3368931745766,42.2635090956733,12.7923125209626,0.323991550544367,468.757740418494,1.33359310744155,0.377125722750681,0.233842872956686,0.000682377506792537,"20140905_Leak12"
22.3536,55.896,12.2848,"AU-ambLeak","NA","NA","NA","NA","NA","2014.06.05","Y",21.7412444071776,41.56784515135,12.890998115462,0.297086045931795,461.041914979261,1.34225966925468,0.345807752093917,0.229993782835355,0.000686812042941161,"20140905_Leak12"
22.3816,75.3356,11.4524,"AU-ambLeak","NA","NA","NA","NA","NA","2014.06.05","Y",21.789892235452,75.3426423842864,11.4447676777629,0.297906335706569,724.956110482686,1.21525181620453,0.346762568272477,0.361649110031608,0.000621824227974348,"20140905_Leak12"
