"N2Oraw","CO2raw","CH4raw","SampleName","Site","LUtype","Chamber","TimePt","TimePtSq","SampleDate","N2Oc","CO2c","CH4c","N2Oppm","CO2ppm","ngN_cm3_N2O","ngC_cm3_CO2","GCrun"
34.8756,95.2978,11.0362,"Mix1",NA,NA,NA,NA,NA,NA,42.807,113.11135,10.9280125,0.301,600,0.35036358928876,0.299313934845642,"20140417_N"
91.2412,65.7028,15.5236,"Mix2",NA,NA,NA,NA,NA,NA,141.4468,61.3201,18.7809625,1.57,325.272927959926,1.827477857752,0.162264533277414,"20140417_N"
162.877,25.0962,3.668,"3N2O",NA,NA,NA,NA,NA,NA,266.80945,-9.74145,-1.9663375,3.02351812411611,-51.6735942060632,3.51937097091342,-0.0257777113490563,"20140417_N"
439.2328,36.897,6.138,"10N2O",NA,NA,NA,NA,NA,NA,750.4321,10.90995,2.3561625,8.83691967559959,57.8719111742545,10.2861624445167,0.0288697824176727,"20140417_N"
0,244.0628,6.342,"3KCO2",NA,NA,NA,NA,NA,NA,-18.2253,373.4501,2.7131625,-0.484179904054956,2940.74742353552,-0.563584747661733,1.467011137876,"20140417_N"
23.66,80.9084,11.2672,"amb",NA,NA,NA,NA,NA,NA,23.1877546704679,87.8121488680194,11.3311713965286,0.0485986131036735,465.800198837797,0.0565687193403947,0.232367483943373,"20140417_N"
24.1976,69.9236,11.2464,"amb",NA,NA,NA,NA,NA,NA,24.1217929733356,68.7269108670132,11.2950330098105,0.0606150061452155,364.562411466294,0.0705557844445115,0.181864349787987,"20140417_N"
25.0636,67.196,10.9628,"amb",NA,NA,NA,NA,NA,NA,25.626400804964,63.9879174241154,10.8023000062888,0.0799717702337113,339.424385390761,0.0930870314314256,0.169324080623121,"20140417_N"
24.2804,68.1576,11.2454,"amb",NA,NA,NA,NA,NA,NA,24.2656515512326,65.6586228408519,11.2932955873721,0.0624657452520601,348.286654738991,0.0727100422395651,0.173745081806922,"20140417_N"
13.1588,63.3032,6.2258,"trav_dummy",NA,NA,NA,NA,NA,NA,4.94273416065739,57.2244793560289,2.57212991573034,-0.186123385794839,303.547677696512,-0.216647367101849,0.151426749707666,"20140417_N"
24.3452,62.252,11.7328,"M2-A-07-T0","M2","M","A",0,0,"2014.03.07",24.378236525239,55.3981008888143,12.1401152838336,0.0639141497704602,293.859639490543,0.0743959831226506,0.146593808313727,"20140417_N"
23.9234,108.6432,11.642,"M2-A-07-T15","M2","M","A",15,225,"2014.03.07",23.6453917407345,135.999212711722,11.9823573264296,0.0544861092479111,984.218745585635,0.0634217568188626,0.490983975816798,"20140417_N"
25.402,161.5004,12.0924,"M2-A-07-T30","M2","M","A",30,900,"2014.03.07",26.2143445581083,227.83449802113,12.7648923926715,0.0875356604964676,1740.91572578023,0.101891389376428,0.868467226863228,"20140417_N"
23.4842,183.7824,10.914,"M2-A-07-T45","M2","M","A",45,2025,"2014.03.07",22.8823158058025,266.547744792889,10.7175137912963,0.0446691452898657,2059.9020154947,0.0519948241668387,1.02759562942365,"20140417_N"
24.7764,71.8308,11.8508,"M2-B-07-T0","M2","M","B",0,0,"2014.03.07",25.1274130806641,72.0405229414724,12.3451311315613,0.0735522983558637,382.139491438158,0.0856147749249108,0.190632791403779,"20140417_N"
25.9172,107.3784,12.2296,"M2-B-07-T15","M2","M","B",15,225,"2014.03.07",27.1094645983565,133.801720811672,13.0032667512158,0.099051370494612,966.112028987895,0.115295660101206,0.48195132149679,"20140417_N"
25.8464,127.0824,10.8564,"M2-B-07-T30","M2","M","B",30,900,"2014.03.07",26.9864550897199,168.035892537313,10.6174382588462,0.0974688544467303,1248.19199723733,0.113453613580798,0.622668763559912,"20140417_N"
28.0564,155.1272,11.5476,"M2-B-07-T45","M2","M","B",45,2025,"2014.03.07",30.8261586785175,216.761557336911,11.8183446482475,0.146866601139081,1649.6778018233,0.170952523328004,0.822952590152068,"20140417_N"
23.884,61.844,11.6712,"M2-C-07-T0","M2","M","C",0,0,"2014.03.07",23.5769372966628,54.6892325339594,12.0330900616301,0.0536054435376493,290.09944201334,0.0623966631337766,0.144718009142564,"20140417_N"
26.688,106.151,12.4828,"M2-C-07-T15","M2","M","C",15,225,"2014.03.07",28.4486698138521,131.669208510817,13.4431821126111,0.116280231648668,948.54072605299,0.135350030975933,0.473185761793771,"20140417_N"
26.3478,135.6284,11.196,"M2-C-07-T30","M2","M","C",30,900,"2014.03.07",27.8575987003186,182.883904695623,11.2074669189166,0.108676107927067,1370.53545078279,0.126498841339734,0.683700597698739,"20140417_N"
28.9344,174.1392,11.8148,"M2-C-07-T45","M2","M","C",45,2025,"2014.03.07",32.3516155794063,249.7934327352,12.28258392378,0.16649158828654,1921.85118572293,0.193795981589563,0.958728067644156,"20140417_N"
27.0184,160.268,12.766,"M2-D-07-T45","M2","M","D",45,2025,"2014.03.07",29.0227141874895,225.693298608083,13.9352201471575,0.123665306538782,1723.27284347863,0.143946248071171,0.859665959323714,"20140417_N"
25.6228,121.7816,11.5048,"M2-D-07-T30","M2","M","D",30,900,"2014.03.07",26.5979674325004,158.826163676002,11.7439829678853,0.0924709647813866,1172.30641584794,0.107636076829904,0.584812743620397,"20140417_N"
24.9172,89.8316,11.9054,"M2-D-07-T15","M2","M","D",15,225,"2014.03.07",25.3720421599866,103.315516770082,12.4399943966963,0.0766994489143628,548.037929545084,0.089278053880751,0.273392315227996,"20140417_N"
26.3856,74.5056,11.6172,"M2-D-07-T0","M2","M","D",0,0,"2014.03.07",27.923273268489,76.6877804796244,11.9392692499581,0.109521010562801,406.790903722523,0.127482306854867,0.202930310087672,"20140417_N"
26.2236,66.1556,12.6148,"M2-E-07-T0","M2","M","E",0,0,"2014.03.07",27.6418108334731,62.1803031192353,13.6725218744759,0.1058999992668,329.835881823895,0.123267454647154,0.164540792736654,"20140417_N"
27.2488,103.1388,12.048,"M2-E-07-T15","M2","M","E",15,225,"2014.03.07",29.42301631729,126.435744641959,12.6877508364078,0.128815189270872,905.41845238465,0.149940704544364,0.451673932775169,"20140417_N"
26.4904,137.6072,12.4086,"M2-E-07-T30","M2","M","E",30,900,"2014.03.07",28.1053551400302,186.321916216669,13.314265367684,0.111863491944411,1398.86370094377,0.130208951986771,0.697832331070364,"20140417_N"
26.9684,182.3092,12.4988,"M2-E-07-T45","M2","M","E",45,2025,"2014.03.07",28.935843065571,263.988174056683,13.470980871625,0.12254771045977,2038.81187089335,0.142645367760148,1.01707467247849,"20140417_N"
24.6112,58.937,11.4412,"SM-A-07-T0","SM","S","A",0,0,"2014.03.07",24.8403908938454,49.638545505618,11.633482900805,0.0698597609108065,263.308034988273,0.0813166663772917,0.131352940048023,"20140417_N"
27.5868,117.6276,12.5716,"SM-A-07-T15","SM","S","A",15,225,"2014.03.07",30.010265101459,151.608910867013,13.5974652251384,0.136370138764996,1112.83827800242,0.158734655446878,0.555146673059587,"20140417_N"
26.6554,157.4148,11.1288,"SM-A-07-T30","SM","S","A",30,900,"2014.03.07",28.3920298423612,220.736084906926,11.0907121310582,0.115551559005152,1682.42679367102,0.134501857013146,0.839289639505682,"20140417_N"
28.5068,196.4844,11.05,"SM-A-07-T45","SM","S","A",45,2025,"2014.03.07",31.6086937447593,288.616484605065,10.9538032429146,0.156933906618825,2241.74223863236,0.182670853169697,1.11830781725788,"20140417_N"
25.166,62.0294,10.9936,"SM-B-07-T0","SM","S","B",0,0,"2014.03.07",25.804312862653,55.0113506540332,10.8558126173906,0.0822606070035288,291.808119984599,0.0957512343084002,0.145570394354166,"20140417_N"
28.2048,119.8246,12.0836,"SM-B-07-T15","SM","S","B",15,225,"2014.03.07",31.0839921683716,155.426027964112,12.7496030752138,0.15018362630159,1144.29025172572,0.174813536091119,0.570836696415894,"20140417_N"
31.4788,176.9536,12.0548,"SM-B-07-T30","SM","S","B",30,900,"2014.03.07",36.7723132315948,254.683234445749,12.6995653089888,0.223363817555326,1962.14177964504,0.259995178856889,0.978827294650979,"20140417_N"
36.6446,238.6986,12.0616,"SM-B-07-T45","SM","S","B",45,2025,"2014.03.07",45.7474900637263,361.960382902901,12.7113797815697,0.338829374054577,2846.07537889197,0.394396929070516,1.4197833675391,"20140417_N"
25.17,68.1452,12.071,"SM-C-07-T0","SM","S","C",0,0,"2014.03.07",25.8112625524065,65.6370788026161,12.7277115524904,0.0823500146898498,348.172374227429,0.095855304733282,0.173688072224269,"20140417_N"
33.2456,146.5402,11.8724,"SM-C-07-T15","SM","S","C",15,225,"2014.03.07",39.8419911957069,201.842310858628,12.3826594562301,0.26285519260331,1526.74739747099,0.30596308552719,0.761627951753975,"20140417_N"
36.96,215.814,12.2112,"SM-C-07-T30","SM","S","C",30,900,"2014.03.07",46.2954731007882,322.20016536978,12.9712981783498,0.345879170120988,2518.4623439041,0.402602882072448,1.25635145652419,"20140417_N"
41.1024,287.886,12.2952,"SM-C-07-T45","SM","S","C",45,2025,"2014.03.07",53.4925718094919,447.419675347979,13.1172416631729,0.438469770075012,3550.23596711124,0.510378214080062,1.77105849491098,"20140417_N"
26.0396,60.5516,11.7664,"SM-D-07-T0","SM","S","D",0,0,"2014.03.07",27.322125104813,52.4437877746101,12.1984926777629,0.101787245696034,278.188463534084,0.11848021510259,0.138776139415084,"20140417_N"
68.8544,147.9136,12.1428,"SM-D-07-T15","SM","S","D",15,225,"2014.03.07",101.709519319135,204.228486835486,12.8524584835653,1.05878029777009,1546.40881791322,1.23241882191013,0.771436180282675,"20140417_N"
100.394,228.2148,12.7588,"SM-D-07-T30","SM","S","D",30,900,"2014.03.07",156.507128056347,343.745593543518,13.9227107056012,1.69762553095601,2695.99062599239,1.97603380164114,1.34491260428791,"20140417_N"
128.5016,304.8728,11.8564,"SM-D-07-T45","SM","S","D",45,2025,"2014.03.07",205.341902985075,476.932922824082,12.3548606972162,2.28464550683391,3793.41684432701,2.65932425258062,1.89237087030876,"20140417_N"
25.3468,69.3404,11.9596,"SM-E-07-T0","SM","S","E",0,0,"2014.03.07",26.1184388395103,67.7136461009559,12.5341626928559,0.0863018344252379,359.187540954763,0.100455217513059,0.179183060384501,"20140417_N"
57.6996,177.0948,12.0388,"SM-E-07-T15","SM","S","E",15,225,"2014.03.07",82.3289195036055,254.928558494047,12.6717665499748,0.809449082926723,1964.16318096035,0.942197628042199,0.979835683953624,"20140417_N"
84.6772,296.181,11.6372,"SM-E-07-T30","SM","S","E",30,900,"2014.03.07",129.200407076975,461.831594474258,11.9740176987255,1.41245028255005,3668.98613644889,1.64409020161515,1.83029779565771,"20140417_N"
106.3072,398.2762,11.173,"SM-E-07-T45","SM","S","E",45,2025,"2014.03.07",166.780854418917,639.214085804125,11.1675062028341,1.82112118769515,5130.56808805365,2.11978257757702,2.55941753738137,"20140417_N"
28.0188,82.3032,11.5412,"M1-A-20-T0","M1","M","A",0,0,"2014.03.20",30.7608315948348,90.2355056850579,11.807225144642,0.146026168887664,478.654913154469,0.169974261334115,0.238780142482439,"20140417_N"
24.4908,88.8916,10.5682,"M1-A-20-T15","M1","M","A",15,225,"2014.03.20",24.6312052322656,101.682339678014,10.116713112108,0.0671685895525445,539.374729475059,0.0781841465883488,0.269070621059139,"20140417_N"
29.4498,142.4508,11.6312,"M1-A-20-T30","M1","M","A",30,900,"2014.03.20",33.2470831041422,194.737295539158,11.9635931640953,0.178011768669,1468.20406504309,0.207205455835586,0.732423226440692,"20140417_N"
29.3664,174.8776,12.7204,"M1-A-20-T45","M1","M","A",45,2025,"2014.03.20",33.1021820727822,251.076345463693,13.8559936839678,0.176147618409207,1932.42202659562,0.2050355874768,0.964001400937873,"20140417_N"
27.0776,68.8968,11.7116,"M1-B-20-T0","M1","M","B",0,0,"2014.03.20",29.125569595841,66.942925507295,12.1032819281402,0.124988540296333,355.099247815334,0.145486490359422,0.177143588540559,"20140417_N"
28.4126,87.3092,13.0212,"M1-B-20-T15","M1","M","B",15,225,"2014.03.20",31.4450285510649,98.9330424115378,14.3786103534295,0.154828355605966,524.791061612497,0.18021999466373,0.261795462705097,"20140417_N"
28.2214,97.2988,11.4572,"M1-B-20-T30","M1","M","B",30,900,"2014.03.20",31.1128333808486,116.289197601878,11.6612816598189,0.150554668199822,821.813752091475,0.175245428354379,0.409967179747934,"20140417_N"
27.9598,108.9458,11.2376,"M1-B-20-T45","M1","M","B",45,2025,"2014.03.20",30.658323670971,136.524956741573,11.2797436923528,0.144707405514429,988.550728857676,0.168439222567108,0.493145014081531,"20140417_N"
27.5996,80.0812,11.8616,"M1-C-20-T0","M1","M","C",0,0,"2014.03.20",30.0325041086701,86.3749530269998,12.3638952938957,0.136656243361223,458.176582776175,0.1590676808065,0.228564393074778,"20140417_N"
28.4804,93.249,11.7478,"M1-C-20-T15","M1","M","C",15,225,"2014.03.20",31.5628257923864,109.252984210968,12.1661766204092,0.156343815889107,579.533269884769,0.181983988365477,0.289103972305286,"20140417_N"
28.4908,89.7266,11.3288,"M1-C-20-T30","M1","M","C",30,900,"2014.03.20",31.5808949857454,103.133087414053,11.4381966187322,0.156576275873541,547.070231664921,0.182254571470169,0.272909572794241,"20140417_N"
30.5756,102.7056,11.9416,"M1-C-20-T45","M1","M","C",45,2025,"2014.03.20",35.2030732852591,125.683093241657,12.5028890889653,0.203175561984045,899.216816054684,0.236496076918574,0.448580205821162,"20140417_N"
27.118,64.1344,12.405,"M1-D-20-T0","M1","M","D",0,0,"2014.03.20",29.1957614623512,58.6686248868019,13.3080106469059,0.125891557928175,311.208158439283,0.146537601650729,0.155248230764213,"20140417_N"
28.6708,78.1256,12.3136,"M1-D-20-T15","M1","M","D",15,225,"2014.03.20",31.893631024652,82.9772497065236,13.1492102360389,0.160599621757986,440.153440162408,0.186937740589851,0.21957343018476,"20140417_N"
27.4906,73.2812,11.5756,"M1-D-20-T30","M1","M","D",30,900,"2014.03.20",29.8431250628878,74.5604804460842,11.8669924765219,0.134219883908976,395.506624822801,0.15623176172847,0.197301073555386,"20140417_N"
27.5936,70.9416,12.0548,"M1-D-20-T45","M1","M","D",45,2025,"2014.03.20",30.0220795740399,70.4956069092738,12.6995653089888,0.136522131831742,373.944472818725,0.158911575169177,0.18654465262192,"20140417_N"
27.8088,74.8712,12.0976,"M1-E-20-T0","M1","M","E",0,0,"2014.03.20",30.3959728827771,77.3229821230924,12.773926989351,0.141332265355811,410.160335579546,0.164510564027819,0.204611173266538,"20140417_N"
27.4508,113.94,11.7042,"M1-E-20-T15","M1","M","E",15,225,"2014.03.20",29.7739756498407,145.20199188328,12.0904250020963,0.133330277430082,1060.04706348168,0.155196261000896,0.528811429487116,"20140417_N"
29.2568,154.1628,11.6804,"M1-E-20-T30","M1","M","E",30,900,"2014.03.20",32.9117605735368,215.085987137347,12.0490743480631,0.173697847804012,1635.87157357625,0.202184057835038,0.816065262648735,"20140417_N"
28.09,178.1648,10.862,"M1-E-20-T45","M1","M","E",45,2025,"2014.03.20",30.8845360724468,256.787600503102,10.6271678245011,0.147617625704177,1979.48116543187,0.171826714897011,0.987477160963751,"20140417_N"
26.624,69.344,11.7108,"F2-A-20-T0","F2","F","A",0,0,"2014.03.20",28.3374747777964,67.719900821734,12.1018919901895,0.114849708667532,359.220719167797,0.133684904177824,0.179199611553658,"20140417_N"
28.6258,108.9222,12.3642,"F2-A-20-T15","F2","F","A",15,225,"2014.03.20",31.8154470149254,136.483953572028,13.2371238114204,0.159593785286875,988.212874246902,0.185766948309931,0.49297647309327,"20140417_N"
30.4392,144.2728,11.7704,"F2-A-20-T30","F2","F","A",30,900,"2014.03.20",34.9660888646654,197.902879221868,12.2054423675163,0.200126759880499,1494.2875862647,0.232947275430104,0.745435162059805,"20140417_N"
29.442,169.7316,11.3616,"F2-A-20-T45","F2","F","A",45,2025,"2014.03.20",33.2335312091229,242.135569595841,11.4951840747107,0.177837423680674,1858.75254239892,0.207002518507066,0.927250895616272,"20140417_N"
28.9756,81.1756,11.835,"F2-B-20-T0","F2","F","B",0,0,"2014.03.20",32.4231973838672,88.2763881435519,12.3176798570351,0.167412487455646,468.262759538553,0.194867906965846,0.233595948498605,"20140417_N"
28.2576,119.1462,12.7476,"F2-B-20-T15","F2","F","B",15,225,"2014.03.20",31.1757280731176,154.247360581922,13.9032515742915,0.151363807761027,1134.57836325331,0.176187265699559,0.565991857160128,"20140417_N"
30.5796,143.2546,12.5256,"F2-B-20-T30","F2","F","B",30,900,"2014.03.20",35.2100229750126,196.13383569512,13.5175437929733,0.203264969670366,1479.71116403207,0.236600147343456,0.738163618235776,"20140417_N"
30.554,165.9512,12.7394,"F2-B-20-T45","F2","F","B",45,2025,"2014.03.20",35.1655449605903,235.567417809827,13.8890047102968,0.202692760477911,1804.63281483243,0.235934096624212,0.900252914598437,"20140417_N"
26.968,64.4764,10.9484,"F2-C-20-T0","F2","F","C",0,0,"2014.03.20",28.9351480965957,59.2628233607245,10.7772811231763,0.122538769691138,314.360088677526,0.14263496071766,0.156820591834159,"20140417_N"
27.4538,111.8452,11.5584,"F2-C-20-T15","F2","F","C",15,225,"2014.03.20",29.7791879171558,141.562439359383,11.8371088105819,0.133397333194823,1030.0581720135,0.155274313819557,0.513851274308785,"20140417_N"
29.0676,154.1554,11.3924,"F2-C-20-T30","F2","F","C",30,900,"2014.03.20",32.5830402481972,215.073130211303,11.5486966858125,0.169468864241029,1635.76563611355,0.197261526738128,0.816012415050722,"20140417_N"
29.8234,186.8208,11.4192,"F2-C-20-T45","F2","F","C",45,2025,"2014.03.20",33.8961841271172,271.826729129633,11.5952596071608,0.186362446571381,2103.39936504449,0.216925633519548,1.04929456750549,"20140417_N"
27.1544,64.6868,11.5644,"F2-D-20-T0","F2","F","D",0,0,"2014.03.20",29.2590036391078,59.6283770417575,11.8475333452121,0.126705167873696,316.299170905966,0.147484642517153,0.157787915720465,"20140417_N"
27.75,280.4488,11.36,"F2-D-20-T15","F2","F","D",15,225,"2014.03.20",30.293812443401,434.498117189334,11.4924041988093,0.140017972366893,3443.76595392282,0.162980728782056,1.71794523059349,"20140417_N"
26.7064,133.3924,10.034,"F2-D-20-T30","F2","F","D",30,900,"2014.03.20",28.4806383867181,178.999028123428,9.18858204553077,0.116691507005744,1338.52515799931,0.135828754930389,0.667732053217763,"20140417_N"
27.624,145.4926,9.3784,"F2-D-20-T45","F2","F","D",45,2025,"2014.03.20",30.0748972161664,200.022187112192,8.04952789493543,0.137201630247781,1511.75008856223,0.159702510398279,0.75414644585135,"20140417_N"
27.3072,68.4388,11.4696,"F2-E-20-T0","F2","F","E",0,0,"2014.03.20",29.5244817876908,66.1471860305216,11.6828256980547,0.130120541491158,350.878241823769,0.151460132747639,0.175037912019988,"20140417_N"
27.421,110.844,11.4648,"F2-E-20-T15","F2","F","E",15,225,"2014.03.20",29.7222004611773,139.822932014087,11.6744860703505,0.132664190166991,1015.72511962763,0.154420936335527,0.506701137128842,"20140417_N"
27.9594,132.5498,11.412,"F2-E-20-T30","F2","F","E",30,900,"2014.03.20",30.6576287019956,177.535075976857,11.5827501656046,0.144698464745797,1326.46260312482,0.16842881552462,0.661714568611471,"20140417_N"
25.766,152.2166,10.022,"F2-E-20-T45","F2","F","E",45,2025,"2014.03.20",26.846766325675,211.704615587791,9.16773297627033,0.0956717599516783,1608.01002088609,0.111361798040673,0.802166344371063,"20140417_N"
27.5206,69.1206,11.1664,"M1-D-27-T0","M1","M","D",0,0,"2014.03.27",29.8952477360389,67.3317606490022,11.1560392147409,0.134890441556384,357.161826725623,0.157012289915084,0.178172519556506,"20140417_N"
27.532,98.1068,11.3384,"M1-D-27-T15","M1","M","D",15,225,"2014.03.27",29.9150543518363,117.693034932081,11.4548758741405,0.135145253462398,833.380977748476,0.157308890625997,0.415737566125675,"20140417_N"
28.4304,154.2544,12.3296,"M1-D-27-T30","M1","M","D",30,900,"2014.03.27",31.4759546704679,215.245135032702,13.1770089950528,0.155226219810094,1637.182907574,0.180683108054454,0.816719430213341,"20140417_N"
29.773,170.7236,12.666,"M1-D-27-T45","M1","M","D",45,2025,"2014.03.27",33.8086180362234,243.859092654704,13.7614779033205,0.185235909723737,1872.95388875009,0.215614346166037,0.934335330377063,"20140417_N"
25.9104,265.2706,12.146,"M1-E-27-T0","M1","M","E",0,0,"2014.03.27",27.0976501257756,408.127171935268,12.8580182353681,0.0988993774278663,3226.47676522592,0.115118740378907,1.60954909381302,"20140417_N"
29.2492,137.0022,11.4968,"M1-E-27-T15","M1","M","E",15,225,"2014.03.27",32.8985561630052,185.270775641456,11.7300835883783,0.173527973200002,1390.20259757436,0.201986324027763,0.693511682854358,"20140417_N"
33.3906,206.436,11.1624,"M1-E-27-T30","M1","M","E",30,900,"2014.03.27",40.0939174492705,305.906617742747,11.1490895249874,0.266096221232446,2384.20808374153,0.309735638429156,1.18937783839244,"20140417_N"
34.9236,266.768,11.728,"M1-E-27-T45","M1","M","E",45,2025,"2014.03.27",42.7573860472916,410.728788294483,12.1317756561295,0.300361717014968,3247.91335396205,0.349620628765113,1.62024287668681,"20140417_N"
29.6996,239.292,10.788,"M1-C-27-T30","M1","M","C",30,900,"2014.03.27",33.681091229247,362.99136937783,10.4985985640617,0.183595278679746,2854.57041813067,0.213704653869456,1.42402117357443,"20140417_N"
29.699,295.2092,10.968,"M1-C-27-T45","M1","M","C",45,2025,"2014.03.27",33.680048775784,460.14316734865,10.8113346029683,0.183581867526798,3655.07397073915,0.213689043305723,1.82335762055637,"20140417_N"
