"N2Oraw","CO2raw","CH4raw","SampleName","Site","LUtype","Chamber","TimePt","TimePtSq","SampleDate","N2Oc","CO2c","CH4c","N2Oppm","CO2ppm","ngN_cm3_N2O","ngC_cm3_CO2","GCrun"
9.7988,72.4352,7.4996,"Mix1",NA,NA,NA,NA,NA,NA,9.30826659399631,83.1417626404494,5.03952187447593,0.301,600,0.344487963105819,0.294294415562636,"20140113_X"
31.9492,53.651,13.8048,"Mix2",NA,NA,NA,NA,NA,NA,47.792868572866,50.5056720736207,15.9943178328861,1.57,364.478720221761,1.79683090390743,0.178773419921134,"20140113_X"
52.1314,24.0796,5.5712,"3N2O",NA,NA,NA,NA,NA,NA,82.857875708536,-0.872341820392423,1.68907644432333,2.95006824992617,-6.29533312276456,3.37628904465188,-0.00308780230356017,"20140113_X"
135.6144,21.68,5.0188,"10N2O",NA,NA,NA,NA,NA,NA,227.903113130974,-5.04146070350495,0.729324289367766,8.26394512589411,-36.3821541189136,9.45790572637051,-0.0178451079722257,"20140113_X"
5.7728,224.2958,5.7254,"3KCO2",NA,NA,NA,NA,NA,NA,2.3134038571189,346.987776584773,1.95698698431997,0.070349808581335,2982.59182775265,0.0805138281165062,1.4629335313506,"20140113_X"
10.035,57.9014,11.0368,"amb",NA,NA,NA,NA,NA,NA,9.71864577393929,57.8904124056683,11.1851325234781,0.314531936217856,417.771362312956,0.359974970230627,0.204912964851163,"20140113_X"
10.636,58.0384,10.4396,"amb",NA,NA,NA,NA,NA,NA,10.7628366593996,58.128439279725,10.1475438432836,0.348963323461427,419.489104635207,0.399380945175629,0.205755501472519,"20140113_X"
10.235,58.13,11.8338,"amb",NA,NA,NA,NA,NA,NA,10.0661302616133,58.2875871750797,12.569858206859,0.325989968578446,420.63760972074,0.373088439430295,0.206318832527383,"20140113_X"
10.95,57.5954,10.0324,"amb",NA,NA,NA,NA,NA,NA,11.3083873050478,57.3587611395271,9.44006542637934,0.366952434267553,413.934653184425,0.419969091819107,0.203031094733388,"20140113_X"
9.7052,58.8948,7.732,"travel",NA,NA,NA,NA,NA,NA,9.14564385376488,59.616367855945,5.44329884915311,0.295637640855244,430.226874889041,0.338350859520375,0.21102227784135,"20140113_X"
13.3956,464.2932,6.9668,"F1-K4-015cm-A","F1","F",NA,NA,NA,"2013.12.17",15.5574276203253,763.964644495221,4.11382319931243,0.507061253972841,6633.17355042661,0.580320593192646,3.2535098889139,"20140113_X"
14.2896,553.547,6.5112,"F1-K4-015cm-B","F1","F",NA,NA,NA,"2013.12.17",17.1106832802281,919.036199325004,3.32225353639108,0.558278658624675,7990.80613710963,0.638937800515161,3.91941603665834,"20140113_X"
12.8704,497.6706,6.0436,"F1-K4-015cm-C","F1","F",NA,NA,NA,"2013.12.17",14.6449333556934,821.95528818967,2.50983480420929,0.476972460993933,7140.87457714765,0.545884623074318,3.50253251714626,"20140113_X"
13.4142,495.4292,5.3284,"F1-K4-040cm-A","F1","F",NA,NA,NA,"2013.12.17",15.589743677679,818.061029536307,1.2672302762871,0.508126850982375,7106.78081666023,0.581540145828215,3.4858098449513,"20140113_X"
13.7774,475.5118,6.2964,"F1-K4-040cm-B","F1","F",NA,NA,NA,"2013.12.17",16.220775507295,783.456091862318,2.94905519662921,0.528934637749206,6803.81879955844,0.605354205894811,3.33720979535021,"20140113_X"
13.5324,491.5654,5.6566,"F1-K4-040cm-C","F1","F",NA,NA,NA,"2013.12.17",15.7951070098944,811.347976718933,1.83745232056012,0.514898548107484,7048.00885638038,0.589290206125218,3.45698274544791,"20140113_X"
15.9056,612.1442,6.5794,"F1-K4-075cm-A","F1","F",NA,NA,NA,"2013.12.17",19.9183579406339,1020.84428943066,3.44074574668791,0.650859560098238,8882.12357354798,0.744894631648477,4.35659894338736,"20140113_X"
15.93,633.8016,5.6464,"F1-K4-075cm-B","F1","F",NA,NA,NA,"2013.12.17",19.9607510481301,1058.47234214741,1.81973061168875,0.65225744004623,9211.55259486504,0.746494474890836,4.51818081221716,"20140113_X"
15.9488,626.7764,5.6548,"F1-K4-075cm-C","F1","F",NA,NA,NA,"2013.12.17",19.9934145899715,1046.26660203337,1.83432496017105,0.653334495088125,9104.69282589201,0.747727140995605,4.46576709012203,"20140113_X"
14.9024,694.0274,5.9352,"F1-K4-150cm-B","F1","F",NA,NA,NA,"2013.12.17",18.1753757504612,1163.10999843619,2.32149821188999,0.593386069777521,10127.642538812,0.679117470142943,4.96751440331162,"20140113_X"
15.9008,749.1564,5.8052,"F1-K4-150cm-C","F1","F",NA,NA,NA,"2013.12.17",19.9100183129297,1258.89236004109,2.09563329490189,0.650584567321584,10966.205455699,0.744579908387685,5.37882170920788,"20140113_X"
14.5948,708.1434,6.8056,"F1-K4-150cm-A","F1","F",NA,NA,NA,"2013.12.17",17.6409446084186,1187.63545357622,3.83375070224719,0.575763616006934,10342.3599132388,0.658948954513854,5.07283127700844,"20140113_X"
14.9388,890.752,5.7392,"F1-K4-250cm-A","F1","F",NA,NA,NA,"2013.12.17",18.2386179272178,1504.90373265554,1.98096341396948,0.595471431667148,13120.0050775743,0.681504121537282,6.43524037747258,"20140113_X"
15.0436,850.0668,6.5758,"F1-K4-250cm-B","F1","F",NA,NA,NA,"2013.12.17",18.420699798759,1434.21635326597,3.43449102590978,0.601475440624097,12501.1456753335,0.688375579397908,6.13169560064277,"20140113_X"
14.5236,809.4458,6.3642,"F1-K4-250cm-C","F1","F",NA,NA,NA,"2013.12.17",17.5172401308066,1363.64051639695,3.0668524379507,0.571684556486565,11883.2628142828,0.654280559478772,5.82862980817761,"20140113_X"
14.0724,943.2668,6.0494,"F1-K4-350cm-A","F1","F",NA,NA,NA,"2013.12.17",16.7333151266141,1596.14412452205,2.51991185435184,0.545835235481075,13918.8036022661,0.624696572964321,6.82704361910005,"20140113_X"
15.2222,1013.2328,7.4296,"F1-K4-350cm-B","F1","F",NA,NA,NA,"2013.12.17",18.7310034462519,1717.70462284504,4.91790230379004,0.611707463522104,14983.0509683151,0.700085907393212,7.34904704677582,"20140113_X"
15.1208,996.1504,6.4972,"F1-K4-350cm-C","F1","F",NA,NA,NA,"2013.12.17",18.5548288110012,1688.02527778383,3.2979296222539,0.605898241115285,14723.2119149779,0.69343737850898,7.22159840953876,"20140113_X"
14.1908,1033.4948,6.2996,"F1-K4-450cm-A","F1","F",NA,NA,NA,"2013.12.17",16.9390259433171,1752.9082762913,2.954614948432,0.552618390638544,15291.2546691253,0.632459746730525,7.50021809344944,"20140113_X"
15.4404,1073.6122,6.353,"F1-K4-450cm-B","F1","F",NA,NA,NA,"2013.12.17",19.1101090223042,1822.60914722036,3.04739330664095,0.624208176827507,15901.4773098756,0.714392702290049,7.79952661915393,"20140113_X"
14.0782,1000.0212,6.4306,"F1-K4-450cm-C","F1","F",NA,NA,NA,"2013.12.17",16.7433921767567,1694.75049255828,3.18221728785846,0.546167518419532,14782.0903517115,0.625076863571112,7.25047773475168,"20140113_X"
15.5564,814.8998,6.4252,"F1-M8-075cm-A","F1","F",NA,NA,NA,"2013.12.18",19.3116500251551,1373.11641837582,3.17283520669126,0.630853835596649,11966.2231826679,0.721998514425857,5.86932109672553,"20140113_X"
15.5786,774.614,6.6796,"F1-M8-075cm-B","F1","F",NA,NA,NA,"2013.12.18",19.3502208032869,1303.12296550813,3.61483547501258,0.632125677188674,11353.4390226591,0.72345410950702,5.5687561696658,"20140113_X"
15.8172,794.2526,7.6788,"F1-M8-075cm-C","F1","F",NA,NA,NA,"2013.12.18",19.764769797082,1337.24350980631,5.35086797543183,0.645795109794857,11652.1602347176,0.739098478262223,5.71527614386403,"20140113_X"
15.1936,781.7524,9.523,"F1-M8-040cm-A","F1","F",NA,NA,NA,"2013.12.18",18.6813131645145,1315.52538184219,8.55502243627368,0.610068964894539,11462.0206679983,0.698210681297659,5.62201445609236,"20140113_X"
15.2792,810.8812,8.7732,"F1-M8-040cm-A","F1","F",NA,NA,NA,"2013.12.18",18.830036525239,1366.13441256498,7.2523030919839,0.614973002744872,11905.0965716682,0.703823246115117,5.83933906295973,"20140113_X"
15.5444,891.976,8.5548,"F1-M8-040cm-A","F1","F",NA,NA,NA,"2013.12.18",19.2908009558947,1507.03033772011,6.8728500314439,0.630166353655013,13138.6232460568,0.721211706273877,6.44437241582657,"20140113_X"
16.2816,1063.5368,7.2088,"F1-M8-015cm-B","F1","F",NA,NA,NA,"2013.12.18",20.571628777461,1805.10392118481,4.53427942939795,0.672400660936146,15748.2211867316,0.769547953743852,7.72435591716719,"20140113_X"
17.0562,1135.2952,7.0176,"F1-M8-015cm-A","F1","F",NA,NA,NA,"2013.12.18",21.9174361982224,1929.77857548633,4.20208425918162,0.716777620268709,16839.7326093067,0.820336419954166,8.25973211081166,"20140113_X"
17.163,1102.9458,7.0672,"F1-M8-015cm-C","F1","F",NA,NA,NA,"2013.12.18",22.1029929146403,1873.57400205853,4.28826041212477,0.722896209549264,16347.6684103635,0.827339012506788,8.01837920106614,"20140113_X"
12.3752,818.6494,6.4484,"F1-M8-350cm-A","F1","F",NA,NA,NA,"2013.12.18",13.7845617642126,1379.63105755073,3.21314340726145,0.448602372869113,12023.2580556596,0.51341567333594,5.89729617108183,"20140113_X"
12.3748,828.5034,6.0994,"F1-M8-350cm-B","F1","F",NA,NA,NA,"2013.12.18",13.7838667952373,1396.75161825843,2.60678297627033,0.448579456804392,12173.146480681,0.513389446397541,5.97081504848395,"20140113_X"
12.371,832.1632,5.9936,"F1-M8-350cm-C","F1","F",NA,NA,NA,"2013.12.18",13.7772645899715,1403.11023689837,2.42296368229079,0.448361754189541,12228.8154128804,0.513140290482747,5.99812014159501,"20140113_X"
12.92,672.0988,7.0434,"F1-M8-150cm-A","F1","F",NA,NA,NA,"2013.12.18",14.7311095086366,1125.01075675415,4.24690975809157,0.479814053019359,9794.08831545864,0.549136763435835,4.80390916127791,"20140113_X"
12.9344,726.8868,5.9228,"F1-M8-150cm-B","F1","F",NA,NA,NA,"2013.12.18",14.7561283917491,1220.20065730756,2.2999541736542,0.480639031349321,10627.4643079563,0.550080933218211,5.21267232903797,"20140113_X"
12.8328,714.1596,6.8324,"F1-M8-150cm-C","F1","F",NA,NA,NA,"2013.12.18",14.5796062720107,1198.08813444994,3.88031362359551,0.474818350910142,10433.8718619514,0.54341929086478,5.11771703611404,"20140113_X"
12.4044,712.1778,6.1466,"F1-M8-250cm-A","F1","F",NA,NA,NA,"2013.12.18",13.8352944994131,1194.64491066158,2.68878931536139,0.450275245593759,10403.7268568055,0.515330239839092,5.10293119166149,"20140113_X"
12.2008,715.7704,6.7202,"F1-M8-250cm-B","F1","F",NA,NA,NA,"2013.12.18",13.4815552909609,1200.88677451367,3.6853748260104,0.438610968650679,10458.3736150491,0.50198072819383,5.12973491796094,"20140113_X"
12.5444,778.4028,6.724,"F1-M8-250cm-C","F1","F",NA,NA,NA,"2013.12.18",14.0785336407848,1309.70571164263,3.6919770312762,0.458295868246172,11411.0701637917,0.524509668278859,5.59702370799553,"20140113_X"
12.76,960.195,6.0578,"F1-M8-450cm-A","F1","F",NA,NA,NA,"2013.12.18",14.4531219184974,1625.55555904327,2.53450620283414,0.470647627130887,14176.2971314367,0.538645988076101,6.95334179856409,"20140113_X"
12.5892,964.8288,6.7382,"F1-M8-450cm-B","F1","F",NA,NA,NA,"2013.12.18",14.1563701660238,1633.60642713819,3.71664842990106,0.460862467494944,14246.7815016279,0.527447085379585,6.98791372611696,"20140113_X"
12.848,957.3636,6.3226,"F1-M8-450cm-C","F1","F",NA,NA,NA,"2013.12.18",14.606015093074,1620.63622115127,2.99457566451451,0.475689161369547,14133.2289269913,0.544415914523955,6.93221724513641,"20140113_X"
14.7192,360.8564,7.5252,"S4-MU-040cm-A","S4","S",NA,NA,NA,"2013.12.18",17.8570799597518,584.251227222036,5.08399988889821,0.582890512135221,5059.80445754526,0.667105532356047,2.48178699282417,"20140113_X"
15.1916,369.4596,7.4012,"S4-MU-040cm-B","S4","S",NA,NA,NA,"2013.12.18",18.6778383196378,599.19861994382,4.86855950654033,0.609954384570933,5190.66706137559,0.698079546605662,2.54597388201293,"20140113_X"
15.2638,368.1096,6.4912,"S4-MU-040cm-C","S4","S",NA,NA,NA,"2013.12.18",18.8032802196881,596.853099652021,3.28750508762368,0.614090734253106,5170.13231672582,0.702813508986743,2.5359017808872,"20140113_X"
20.5258,404.7852,8.6724,"S4-MU-015cm-A","S4","S",NA,NA,NA,"2013.12.18",27.9455970903907,660.574110032702,7.07717091019621,0.915551565660214,5728.00200626454,1.04782888363,2.80953167129205,"20140113_X"
19.1664,363.1924,8.2328,"S4-MU-015cm-B","S4","S",NA,NA,NA,"2013.12.18",25.5837450276706,588.309846038068,6.31340000628878,0.837671319705288,5095.33717125035,0.958696633479861,2.4992154581795,"20140113_X"
20.1324,391.1588,8.2796,"S4-MU-015cm-C","S4","S",NA,NA,NA,"2013.12.18",27.262095103136,636.899296918497,6.3947113764045,0.893013616006935,5520.7318992307,1.02203468971426,2.70786761293683,"20140113_X"
14.3544,506.334,6.1856,"S4-MU-075cm-A","S4","S",NA,NA,NA,"2013.12.18",17.2232682542344,837.007273742244,2.75654879045782,0.561991061109506,7272.65287848013,0.643186564535853,3.56716854743706,"20140113_X"
14.2996,523.2144,5.5252,"S4-MU-075cm-B","S4","S",NA,NA,NA,"2013.12.18",17.1280575046118,866.335659470904,1.60915501215831,0.558851560242705,7529.41932558092,0.639593473975144,3.69311009991309,"20140113_X"
14.3024,488.3272,7.2104,"S4-MU-075cm-C","S4","S",NA,NA,NA,"2013.12.18",17.1329222874392,805.721855379004,4.53705930529935,0.559011972695753,6998.75284888046,0.63977706254394,3.43282313221435,"20140113_X"
17.5532,561.1634,5.829,"S4-MU-250cm-A","S4","S",NA,NA,NA,"2013.12.18",22.7809351500922,932.269103584605,2.1369839489351,0.745250830684773,8106.65860314707,0.85292339091534,3.97624059296497,"20140113_X"
18.5612,594.0284,5.8464,"S4-MU-250cm-B","S4","S",NA,NA,NA,"2013.12.18",24.5322569679691,989.369492021634,2.16721509936274,0.802999313782144,8606.56555345436,0.919015275681666,4.22144029925895,"20140113_X"
18.4032,600.0556,5.8324,"S4-MU-250cm-C","S4","S",NA,NA,NA,"2013.12.18",24.2577442227067,999.841284542177,2.14289118522556,0.793947468217278,8698.24482230853,0.908655635013928,4.26640812733669,"20140113_X"
16.7032,646.1632,6.7728,"S4-MU-150cm-A","S4","S",NA,NA,NA,"2013.12.18",21.3041260774778,1079.94966336156,3.77676324626866,0.696554193152268,9399.58392780034,0.797191146816752,4.61040843093992,"20140113_X"
17.416,670.0568,5.7076,"S4-MU-150cm-B","S4","S",NA,NA,NA,"2013.12.18",22.5425607915479,1121.462940135,1.92606086491699,0.737390620485409,9763.02761281061,0.843927551044368,4.7886741757233,"20140113_X"
17.526,671.6132,5.6036,"S4-MU-150cm-C","S4","S",NA,NA,NA,"2013.12.18",22.7336772597686,1124.16706441808,1.74536893132651,0.743692538283733,9786.70189175351,0.851139959104185,4.80028618919891,"20140113_X"
