"N2Oraw","CO2raw","CH4raw","SampleName","Site","LUtype","Chamber","TimePt","TimePtSq","SampleDate","Pressure","N2Oc","CO2c","CH4c","N2Oppm","CO2ppm","CH4ppm","ngN_cm3_N2O","ngC_cm3_CO2","ngC_cm3_CH4","GCrun"
33.5716,50.323,6.552,"Mix1","NA","NA","NA","NA","NA","NA","Y",32.098825,52.8530875,4.3918875,0.301,600,0.666366255445591,0.338806156028369,0.28944047501237,0.000321455609180644,"20140310_H"
106.1708,48.9352,13.2096,"Mix2","NA","NA","NA","NA","NA","NA","Y",159.147425,50.4244375,16.0426875,1.57,572.429425244079,1.79133643426556,1.76719490021442,0.27614040792284,0.000864142114067983,"20140310_H"
193.3596,21.6168,4.7194,"3N2O","NA","NA","NA","NA","NA","NA","Y",311.727825,2.6172375,1.1848375,3.01290316458127,29.7114619841273,0.356702059683533,3.39132936769929,0.0143328327833296,0.000172073355987821,"20140310_H"
546.2444,24.4358,4.716,"10N2O","NA","NA","NA","NA","NA","NA","Y",929.276225,7.5504875,1.1788875,8.96779986401977,85.714812781751,0.356127543550394,10.0941720928913,0.041348893545244,0.000171796208950358,"20140310_H"
0,179.928,4.4008,"3KCO2","NA","NA","NA","NA","NA","NA","Y",-26.651475,279.6618375,0.6272875,-0.285815838191054,3003.68638453805,0.30286651850172,-0.321714835446968,1.44898068988147,0.000146103048300801,"20140310_H"
35.4904,49.161,9.4544,"amb","NA","NA","NA","NA","NA","NA","Y",35.456725,50.8195875,9.4710875,0.334539724955647,576.915255896829,1.15680026274658,0.376558532395384,0.278304376181102,0.000558041362573009,"20140310_H"
35.0648,49.0688,9.7122,"amb","NA","NA","NA","NA","NA","NA","Y",34.711925,50.6582375,9.9222375,0.327100436368445,575.083574824271,1.2003621036652,0.368184855419252,0.277420771781582,0.000579055629119506,"20140310_H"
35.4028,43.592,9.1068,"amb","NA","NA","NA","NA","NA","NA","Y",35.303425,41.0738375,8.8627875,0.333008518000199,466.279335147639,1.09806443689976,0.374835003017778,0.224933520422641,0.000529707153684095,"20140310_H"
36.1832,45.9764,9.4552,"amb","NA","NA","NA","NA","NA","NA","Y",36.669125,45.2465375,9.4724875,0.346649544347596,513.648753254008,1.1569354430132,0.390189367473072,0.24778456521892,0.000558106573640648,"20140310_H"
46.3708,734.4458,5.1764,"F1-C2-150cm-A","F1","F","NA","NA","NA","2014.02.26","Y",54.497425,1250.0679875,1.9845875,0.524724018997455,13371.366582119,0.43392378699078,0.590630325090646,6.45035782515511,0.000209325178376296,"20140310_H"
50.2528,838.9432,5.2248,"F1-C2-150cm-C","F1","F","NA","NA","NA","2014.02.26","Y",61.290925,1432.9384375,2.0692875,0.592579560105346,15325.1282551955,0.442102193121351,0.667008647509216,7.39285400301549,0.000213270447968424,"20140310_H"
48.6944,792.9898,5.5646,"F1-C2-150cm-B","F1","F","NA","NA","NA","2014.02.26","Y",58.563725,1352.5199875,2.6639375,0.565339458286042,14465.9490634879,0.499520011368621,0.636347138581576,6.97838528073447,0.000240968848947864,"20140310_H"
48.782,778.5294,4.8592,"F1-C2-150cm-A","F1","F","NA","NA","NA","2014.02.26","Y",58.717025,1327.2142875,1.4294875,0.566870665241491,14195.5865922938,0.380324811275553,0.638070667959182,6.84796221058792,0.000183468990057644,"20140310_H"
52.5812,891.0872,5.0748,"F1-C2-250cm-C","F1","F","NA","NA","NA","2014.02.26","Y",65.365625,1524.1904375,1.8067875,0.633278901144917,16300.0515420993,0.416755893129913,0.712819900966042,7.86315776845225,0.000201043372786211,"20140310_H"
50.633,817.7854,5.304,"F1-C2-250cm-B","F1","F","NA","NA","NA","2014.02.26","Y",61.956275,1395.9122875,2.2078875,0.599225277964496,14929.5461763437,0.45548503951683,0.674489079807912,7.20202489500004,0.000219726343664632,"20140310_H"
53.9492,756.6524,5.5716,"F1-C2-350cm-A","F1","F","NA","NA","NA","2014.02.26","Y",67.759625,1288.9295375,2.6761875,0.657190900175209,13786.5578114639,0.500702838701555,0.739735291246465,6.65064640289269,0.0002415394457897,"20140310_H"
55.9976,834.4218,5.3786,"F1-C2-350cm-B","F1","F","NA","NA","NA","2014.02.26","Y",71.344325,1425.0259875,2.3384375,0.69299597240741,15240.5927736558,0.468090599379238,0.780037546692678,7.35207401979507,0.000225807275721919,"20140310_H"
51.0614,526.0444,7.8138,"F1-C2-450cm-A","F1","F","NA","NA","NA","2014.02.26","Y",62.705975,885.3655375,6.6000375,0.606713509239771,9474.93788690285,0.879579330973565,0.68291784676415,4.57071753782977,0.000424309765613419,"20140310_H"
54.2088,705.985,6.9688,"F1-C2-450cm-B","F1","F","NA","NA","NA","2014.02.26","Y",68.213925,1200.2615875,5.1212875,0.661728586540899,12839.2421443331,0.736795174355133,0.744842919402019,6.19366057509101,0.000355430575420286,"20140310_H"
43.6574,468.448,5.1918,"S4-MU-450cm-B","S4","S","NA","NA","NA","2014.02.26","Y",49.748975,784.5718375,2.0115375,0.477295058347751,8398.0724450145,0.436526007123234,0.537244199369227,4.05123679612216,0.000210580491428337,"20140310_H"
41.8868,582.5752,6.4286,"F1-C2-015cm-A","F1","F","NA","NA","NA","2014.02.26","Y",46.650425,984.2944375,4.1759375,0.446345799953719,10531.8800729128,0.645514699319302,0.502407656949258,5.08058728512865,0.00031139680199741,"20140310_H"
42.27,579.38,6.5342,"F1-C2-015cm-C","F1","F","NA","NA","NA","2014.02.26","Y",47.321025,978.7028375,4.3607375,0.453043956407233,10472.1402200761,0.663358494513274,0.50994711422664,5.05176873282496,0.000320004662925688,"20140310_H"
40.8482,570.4262,6.2296,"F1-C2-015cm-B","F1","F","NA","NA","NA","2014.02.26","Y",44.832875,963.0336875,3.8276875,0.428191558584668,10304.7332676697,0.611888607997328,0.481973209328463,4.97101148645015,0.000295175548922341,"20140310_H"
40.636,566.5984,4.8768,"F1-C2-040cm-C","F1","F","NA","NA","NA","2014.02.26","Y",44.461525,956.3350375,1.4602875,0.42448240200994,10233.1658513301,0.383298777141215,0.477798175836135,4.93648730814894,0.00018490363354569,"20140310_H"
41.1334,387.1134,7.1384,"F1-C2-040cm-B","F1","F","NA","NA","NA","2014.02.26","Y",45.331975,642.2362875,5.4180875,0.433176720955603,6877.37983280589,0.765453390878785,0.48758451730213,3.31765347607972,0.000369255321759642,"20140310_H"
42.8976,601.458,5.3716,"F1-C2-040cm-A","F1","F","NA","NA","NA","2014.02.26","Y",48.419325,1017.3393375,2.3261875,0.464014110348324,10884.9270474822,0.466907772046304,0.522295139767571,5.25089742516373,0.000225236678880083,"20140310_H"
43.7748,743.843,5.072,"F1-C2-075cm-B","F1","F","NA","NA","NA","2014.02.26","Y",49.954425,1266.5130875,1.8018875,0.479347155340555,13547.063673092,0.416282762196739,0.539554043535106,6.53511424093761,0.000200815134049476,"20140310_H"
43.3156,753.6458,5.0364,"F1-C2-075cm-C","F1","F","NA","NA","NA","2014.02.26","Y",49.150825,1283.6679875,1.7395875,0.471320554496468,13730.3441655141,0.410267240332105,0.5305192867977,6.62352889558289,0.000197913241539564,"20140310_H"
43.932,718.5584,5.0276,"F1-C2-075cm-A","F1","F","NA","NA","NA","2014.02.26","Y",50.229525,1222.2650375,1.7241875,0.482094937685264,13074.3238499091,0.408780257399274,0.542646952418207,6.30706417597208,0.000197195919795541,"20140310_H"
38.0128,694.1056,5.5052,"S4-MU-075cm-B","S4","S","NA","NA","NA","2014.02.26","Y",39.870925,1179.4726375,2.5599875,0.378630095097467,12617.1359826569,0.489482876572011,0.426186734473849,6.08651638685978,0.000236126927175707,"20140310_H"
41.0718,699.6364,5.6752,"S4-MU-150cm-C","S4","S","NA","NA","NA","2014.02.26","Y",45.224175,1189.1515375,2.8574875,0.432099981817982,12720.5439627736,0.518208683228974,0.486372537739796,6.13640047833488,0.000249984279048882,"20140310_H"
37.5504,305.1236,7.964,"S4-MU-150cm-A","S4","S","NA","NA","NA","2014.02.26","Y",39.061725,498.7541375,6.8628875,0.370547559752725,5344.43711056393,0.904959426031658,0.41708901775918,2.57816069325894,0.000436553143562542,"20140310_H"
39.844,506.9398,7.0632,"S4-MU-150cm-B","S4","S","NA","NA","NA","2014.02.26","Y",43.075525,851.9324875,5.2864875,0.410638613097665,9117.74397337527,0.752746445816411,0.462215581463258,4.39840691115819,0.000363125481401626,"20140310_H"
43.63,514.2196,5.0592,"S4-MU-250cm-B","S4","S","NA","NA","NA","2014.02.26","Y",49.701025,864.6721375,1.7794875,0.476816119185887,9253.85256772941,0.414119877930803,0.536705104563903,4.46406580483007,0.000199771756967261,"20140310_H"
44.4726,457.4116,5.0504,"S4-MU-250cm-A","S4","S","NA","NA","NA","2014.02.26","Y",51.175575,765.2581375,1.7640875,0.491544372389779,8191.72764285922,0.412632894997972,0.553283253577269,3.95169590020189,0.000199054435223238,"20140310_H"
44.3824,593.5988,4.9802,"S4-MU-250cm-C","S4","S","NA","NA","NA","2014.02.26","Y",51.017725,1003.5857375,1.6412375,0.489967718652548,10737.9855566791,0.400770826601979,0.551508569218136,5.18001273366863,0.000193332164037962,"20140310_H"
41.4232,369.1244,6.3052,"S4-MU-350cm-B","S4","S","NA","NA","NA","2014.02.26","Y",45.839125,610.7555375,3.9599875,0.438242289171231,6541.04401261349,0.624663143193013,0.493286330243115,3.15540481014612,0.000301337994814176,"20140310_H"
39.594,261.5512,7.1468,"S4-MU-350cm-A","S4","S","NA","NA","NA","2014.02.26","Y",42.638025,422.5024375,5.4327875,0.406268730233942,4529.77487854707,0.766872783678306,0.457296833239496,2.18516698757627,0.000369940037969846,"20140310_H"
42.7628,425.3016,4.62,"S4-MU-450cm-A","S4","S","NA","NA","NA","2014.02.26","Y",48.183425,709.0656375,1.0108875,0.461657869508204,7591.37502812922,0.339905911555874,0.519642950725319,3.66208532356461,0.000163970880833741,"20140310_H"
45.6926,860.8568,5.3764,"F1-M8-450cm-C","F1","F","NA","NA","NA","2014.02.25","Y",53.310575,1471.2872375,2.3345875,0.512869400764747,15734.8413370438,0.46771885364603,0.577286744909226,7.59049991806372,0.000225627945285914,"20140310_H"
38.7486,333.1592,7.807,"F1-M8-450cm-A","F1","F","NA","NA","NA","2014.02.25","Y",41.158575,547.8164375,6.5881375,0.391491534341976,5868.61169061763,0.878430298707287,0.440663594246024,2.83102292565919,0.000423755471538492,"20140310_H"
36.238,390.768,7.6966,"S4-MU-015cm-A","S4","S","NA","NA","NA","2014.02.26","Y",36.765025,648.6318375,6.3949375,0.347607422671324,6945.70897219525,0.859775421913589,0.391267557083721,3.35061550701646,0.000414756344204383,"20140310_H"
36.2076,467.7316,7.3678,"S4-MU-015cm-B","S4","S","NA","NA","NA","2014.02.26","Y",36.711825,783.3181375,5.8195375,0.347076044915096,8384.67809393407,0.804216332332357,0.390669437299711,4.04477535055682,0.000387954595404973,"20140310_H"
37.888,480.3194,7.4804,"S4-MU-015cm-C","S4","S","NA","NA","NA","2014.02.26","Y",39.652525,805.3467875,6.0165875,0.376448649571896,8620.02903269764,0.823242954859263,0.423731295360547,4.15830882974071,0.000397133053175087,"20140310_H"
37.7076,448.11,6.34,"S4-MU-040cm-A","S4","S","NA","NA","NA","2014.02.26","Y",39.336825,748.9803375,4.0208875,0.373295342097434,8017.81796110361,0.630543484791026,0.420181926642281,3.8678017320409,0.000304174676256449,"20140310_H"
36.7338,525.1124,5.6804,"S4-MU-040cm-B","S4","S","NA","NA","NA","2014.02.26","Y",37.632675,883.7345375,2.8665875,0.35627377436666,9457.51251670888,0.519087354962011,0.401022418561085,4.56231152545276,0.000250408150988532,"20140310_H"
36.8642,528.8462,5.8268,"S4-MU-040cm-C","S4","S","NA","NA","NA","2014.02.26","Y",37.860875,890.2686875,3.1227875,0.358553105268378,9527.32243862974,0.543825343753654,0.403588037634599,4.59598788705501,0.000262341776366372,"20140310_H"
0.6448,0,0,"Rerun_S4-MU-075cm-C","Re","R","NA","NA","NA","2014.02.26","Y",-25.523075,-35.2121625,-7.0741125,-0.27454503630894,-399.736297335515,-1.61072261072261,-0.309028400028242,-0.192833106300796,-0.000777013862601196,"20140310_H"
37.9406,421.6024,7.2704,"S4-MU-075cm-A","S4","S","NA","NA","NA","2014.02.26","Y",39.744575,702.5920375,5.6490875,0.377368072926424,7522.21201372844,0.78775813487125,0.424766199986827,3.62872103066219,0.000380015147919989,"20140310_H"
41.1762,755.4664,6.0282,"F1-M8-150cm-C","F1","F","NA","NA","NA","2014.02.25","Y",45.406875,1286.8540375,3.4752375,0.433924844901872,13764.3834669896,0.577856975875491,0.488426606998038,6.63994948156314,0.000278758662644356,"20140310_H"
40.7444,557.8202,7.3448,"F1-M8-150cm-B","F1","F","NA","NA","NA","2014.02.25","Y",44.651225,940.9731875,5.7792875,0.42637718321965,10069.0420480719,0.800329899667003,0.479930945065957,4.85731385552242,0.000386079777210367,"20140310_H"
40.18,342.908,8.4664,"F1-M8-150cm-A","F1","F","NA","NA","NA","2014.02.25","Y",43.663525,564.8768375,7.7420875,0.416511735666509,6050.88255858648,0.989852633469647,0.468826379075993,2.91895053666889,0.0004775056940395,"20140310_H"
42.0306,522.9138,7.078,"F1-M8-250cm-B","F1","F","NA","NA","NA","2014.02.25","Y",46.902075,879.8869875,5.3123875,0.448859356576932,9416.40584406032,0.7552472807489,0.505236920927566,4.54248163402346,0.000364331886152937,"20140310_H"
39.9592,314.6088,8.04,"F1-M8-250cm-A","F1","F","NA","NA","NA","2014.02.25","Y",43.277125,515.3532375,6.9958875,0.412652255121269,5521.77951546075,0.917801551360653,0.464482140644767,2.66371080978089,0.000442748194988196,"20140310_H"
43.432,747.1542,5.7624,"F1-M8-250cm-C","F1","F","NA","NA","NA","2014.02.25","Y",49.354525,1272.3076875,3.0100875,0.473355171957818,13608.9723488283,0.532943332290663,0.532809455970684,6.56497903512513,0.000257092285421475,"20140310_H"
40.769,366.0432,8.0224,"F1-M8-350cm-A","F1","F","NA","NA","NA","2014.02.25","Y",44.694275,605.3634375,6.9650875,0.42680717969344,6483.43558917824,0.914827585494991,0.480414949891176,3.12761446107309,0.00044131355150015,"20140310_H"
43.6384,590.9736,7.1856,"F1-M8-350cm-B","F1","F","NA","NA","NA","2014.02.25","Y",49.715725,998.9916375,5.5006875,0.476962947250108,10688.9028508495,0.773429026609424,0.536870374504221,5.15633519751826,0.000373102774750311,"20140310_H"
0,0,0,"Rerun_F1-M8-350cm-C","Re","R","NA","NA","NA","2014.02.25","Y",-26.651475,-35.2121625,-7.0741125,-0.285815838191054,-399.736297335515,-1.61072261072261,-0.321714835446968,-0.192833106300796,-0.000777013862601196,"20140310_H"
40.9068,566.3542,6.604,"F1-M8-450cm-B","F1","F","NA","NA","NA","2014.02.25","Y",44.935425,955.9076875,4.4828875,0.429215859127924,10228.6001051913,0.675152972775956,0.483126163912113,4.93428478859693,0.000325694328577144,"20140310_H"
46.3408,559.2582,7.1376,"F1-K4-450cm-A","F1","F","NA","NA","NA","2014.02.25","Y",54.444925,943.4896875,5.4166875,0.524199633053808,10095.9279733282,0.765318210612164,0.590040075303794,4.87028364715133,0.000369190110692003,"20140310_H"
46.0924,1163.3502,5.6134,"F1-M8-015cm-C","F1","F","NA","NA","NA","2014.02.25","Y",54.010225,2000.6506875,2.7493375,0.519857717440413,21390.4845518855,0.507766007632502,0.585152807068665,10.3187866824042,0.00024494672407381,"20140310_H"
47.7512,1164.1744,5.5628,"F1-M8-015cm-B","F1","F","NA","NA","NA","2014.02.25","Y",56.913125,2002.0930375,2.6607875,0.548852764217788,21405.8944125227,0.499215855768724,0.617789685282968,10.3262204113753,0.000240822124045677,"20140310_H"
44.3908,891.978,6.6192,"F1-M8-015cm-A","F1","F","NA","NA","NA","2014.02.25","Y",51.032425,1525.7493375,4.5094875,0.490114546716768,16316.7066062289,0.677721397841755,0.551673839158454,7.87119218457397,0.000326933338862275,"20140310_H"
46.4694,983.5498,7.1492,"F1-M8-040cm-B","F1","F","NA","NA","NA","2014.02.25","Y",54.669975,1685.9999875,5.4369875,0.526447500798907,18028.801578684,0.767278324478169,0.592570279390098,8.69710815473012,0.000370135671172761,"20140310_H"
43.8254,371.1452,8.3262,"F1-K4-250cm-A","F1","F","NA","NA","NA","2014.02.25","Y",50.042975,614.2919375,7.4967375,0.480231619632172,6578.82640326583,0.966162291744316,0.540549598175595,3.17363106530864,0.000466077454435858,"20140310_H"
46.6352,987.7012,7.257,"F1-M8-040cm-C","F1","F","NA","NA","NA","2014.02.25","Y",54.960125,1693.2649375,5.6256375,0.529345607114128,18106.4192630437,0.785493865405348,0.595832393212096,8.73455098711417,0.000378922862537045,"20140310_H"
44.0272,629.7312,8.1244,"F1-M8-075cm-A","F1","F","NA","NA","NA","2014.02.25","Y",50.396125,1066.8174375,7.1435875,0.48375898907977,11413.5439751304,0.932063069489169,0.544520011741816,5.50590264956052,0.000449627962624055,"20140310_H"
47.8814,1050.05,6.9228,"F1-M8-075cm-B","F1","F","NA","NA","NA","2014.02.25","Y",57.140975,1802.3753375,5.0407875,0.551128599213215,19272.139135522,0.729022309024425,0.620351369357903,9.2968951764833,0.000351680939031074,"20140310_H"
48.342,1085.5456,6.562,"F1-M8-075cm-C","F1","F","NA","NA","NA","2014.02.25","Y",57.947025,1864.4926375,4.4093875,0.559179671401338,19935.791464124,0.668056008778354,0.629413671085361,9.61704158520601,0.000322270747526125,"20140310_H"
45.629,600.6926,5.6048,"F1-K4-150cm-B","F1","F","NA","NA","NA","2014.02.25","Y",53.199275,1015.9998875,2.7342875,0.511757702564216,10870.6165556941,0.506312819766326,0.576035415361101,5.24399403259574,0.000244245705096697,"20140310_H"
46.3344,509.4908,7.5616,"F1-K4-150cm-A","F1","F","NA","NA","NA","2014.02.25","Y",54.433725,856.3967375,6.1586875,0.524087764052497,9165.43938041906,0.836963751921295,0.589914155349266,4.42141521327596,0.000403751976540392,"20140310_H"
43.8534,823.0042,7.516,"F1-M8-040cm-A","F1","F","NA","NA","NA","2014.02.25","Y",50.091975,1405.0451875,6.0788875,0.48072104651291,15027.1207707302,0.829258476723898,0.541100497976656,7.24909495658068,0.000400034945684999,"20140310_H"
0,0,0,"F1-K4-250cm-B","F1","F","NA","NA","NA","2014.02.25","Y",-26.651475,-35.2121625,-7.0741125,-0.285815838191054,-399.736297335515,-1.61072261072261,-0.321714835446968,-0.192833106300796,-0.000777013862601196,"20140310_H"
49.134,799.9172,5.5866,"F1-K4-250cm-C","F1","F","NA","NA","NA","2014.02.25","Y",59.333025,1364.6429375,2.7024375,0.573023460313613,14595.4689234468,0.503237468700698,0.644996265458238,7.04086576371787,0.000242762153307921,"20140310_H"
51.1668,888.84,5.0322,"F1-K4-350cm-B","F1","F","NA","NA","NA","2014.02.25","Y",62.890425,1520.2578375,1.7322375,0.608555851855117,16258.0362074428,0.409557543932345,0.684991591015288,7.84288953775094,0.000197570883434462,"20140310_H"
50.3888,824.9732,5.4906,"F1-K4-350cm-A","F1","F","NA","NA","NA","2014.02.25","Y",61.528925,1408.4909375,2.5344375,0.594956776383211,15063.9346697774,0.487015836706178,0.669684446542942,7.26685401062612,0.000234936825191305,"20140310_H"
54.423,989.69,5.223,"F1-K4-350cm-C","F1","F","NA","NA","NA","2014.02.25","Y",68.588775,1696.7453375,2.0661375,0.665472702178537,18143.6033577237,0.441798037521453,0.749057302880138,8.75248862382599,0.000213123723066237,"20140310_H"
52.8664,1047.633,5.9908,"F1-K4-450cm-C","F1","F","NA","NA","NA","2014.02.25","Y",65.864725,1798.1455875,3.4097875,0.638264063515852,19226.9490928623,0.571537298410959,0.718431208939709,9.27509546412788,0.000275710045232258,"20140310_H"
48.7124,787.584,6.5628,"F1-K4-450cm-B","F1","F","NA","NA","NA","2014.02.25","Y",58.595225,1343.0598375,4.4107875,0.56565408985223,14364.878177013,0.668191189044975,0.636701288453687,6.92962860508247,0.000322335958593763,"20140310_H"
43.3748,475.3164,6.3318,"F1-K4-015cm-A","F1","F","NA","NA","NA","2014.02.25","Y",49.254425,796.5915375,4.0065375,0.472355342758598,8526.48919677444,0.629157887058161,0.531684046377087,4.11318513883706,0.000303506262813155,"20140310_H"
44.34,564.5776,5.7138,"F1-K4-015cm-C","F1","F","NA","NA","NA","2014.02.25","Y",50.943525,952.7986375,2.9250375,0.48922658651886,10195.3834606778,0.524731131093437,0.550674349519386,4.91826105298641,0.000253130713062438,"20140310_H"
43.8812,561.9504,5.5356,"F1-K4-015cm-B","F1","F","NA","NA","NA","2014.02.25","Y",50.140625,948.2010375,2.6131875,0.481206977487356,10146.2633613499,0.494619726703609,0.541647462779139,4.89456547818288,0.000238604947745969,"20140310_H"
44.439,543.2624,5.3932,"F1-K4-040cm-B","F1","F","NA","NA","NA","2014.02.25","Y",51.116775,915.4970375,2.3639875,0.490957060132894,9796.85851351204,0.470557639245071,0.552622173815996,4.72601230296651,0.000226997377706322,"20140310_H"
45.3216,554.6252,5.6284,"F1-K4-040cm-C","F1","F","NA","NA","NA","2014.02.25","Y",52.661325,935.3819375,2.7755875,0.506384494594982,10009.305934585,0.510300637631646,0.569987322545163,4.82849710708405,0.000246169431592031,"20140310_H"
43.6532,476.8272,6.1584,"F1-K4-040cm-A","F1","F","NA","NA","NA","2014.02.25","Y",49.741625,799.2354375,3.7030875,0.47722164431564,8554.73624536784,0.599857564268059,0.537161564399068,4.12681153744134,0.000289371763902517,"20140310_H"
43.3512,430.1828,7.265,"F1-K4-075cm-A","F1","F","NA","NA","NA","2014.02.25","Y",49.213125,717.6077375,5.6396375,0.471942825816263,7682.63760000777,0.786845668071558,0.531219716544764,3.70611046049024,0.000379574973213429,"20140310_H"
47.029,687.3888,5.9562,"F1-K4-075cm-B","F1","F","NA","NA","NA","2014.02.25","Y",55.649275,1167.7182375,3.3492375,0.536229046601065,12491.5536580658,0.565690751879601,0.603580405414166,6.02593537405513,0.000272889666556894,"20140310_H"
46.978,704.3402,5.25,"F1-K4-075cm-C","F1","F","NA","NA","NA","2014.02.25","Y",55.560025,1197.3831875,2.1133875,0.535337590496865,12808.4897313556,0.446360371519912,0.602576980776518,6.17882558672437,0.000215324596599036,"20140310_H"
50.9674,804.7292,5.7084,"F1-K4-150cm-C","F1","F","NA","NA","NA","2014.02.25","Y",62.541475,1373.0639375,2.9155875,0.605070433283012,14685.4376802852,0.523818664293746,0.681068397432016,7.08426676324383,0.000252690538355878,"20140310_H"
35.7752,101.6386,9.027,"F2-B-25-T30","F2","F","B","30","900","2014.02.25","Y",35.955125,142.6553875,8.7231375,0.339517895514,1539.92911279583,1.08458020530431,0.382161970371893,0.742863023155005,0.000523202349687157,"20140310_H"
37.4848,128.3908,8.5348,"F2-B-25-T45","F2","F","B","45","2025","2014.02.25","Y",38.946925,189.4717375,7.8617875,0.369400902489284,2040.10828500947,1.00141054626574,0.415798338225264,0.984149851816353,0.000483081240322589,"20140310_H"
36.4368,52.9856,10.1656,"F2-D-25-T0","F2","F","D","0","0","2014.02.25","Y",37.112925,57.5126375,10.7156875,0.351082353524557,630.276177122875,1.27697551977265,0.395178945671256,0.30404572682571,0.000616014001703608,"20140310_H"
36.8352,86.6622,9.7778,"F2-D-25-T15","F2","F","D","15","225","2014.02.25","Y",37.810125,116.4466875,10.0370375,0.358046198856186,1259.91911904801,1.21144688552812,0.403017462840642,0.607785980490707,0.00058440293666586,"20140310_H"
38.4276,118.6352,9.3844,"F2-D-25-T30","F2","F","D","30","900","2014.02.25","Y",40.596825,172.3994375,9.3485875,0.385880604744956,1857.7102791465,1.14497198941725,0.434347921526714,0.896160909385874,0.000552335394154643,"20140310_H"
39.394,143.0248,9.3232,"F2-D-25-T45","F2","F","D","45","2025","2014.02.25","Y",42.288025,215.0812375,9.2414875,0.402772823942964,2313.7165118534,1.13463069902074,0.453361834660487,1.11613867705802,0.0005473467474803,"20140310_H"
37.1358,50.8472,9.8626,"F2-E-25-T0","F2","F","E","0","0","2014.02.25","Y",38.336175,53.7704375,10.1854375,0.363300546011527,590.295048772248,1.22577599378995,0.408931765704893,0.284758798856816,0.000591315309835538,"20140310_H"
37.5252,91.7612,9.5496,"F2-E-25-T15","F2","F","E","15","225","2014.02.25","Y",39.017625,125.3699375,9.6376875,0.370107075560062,1355.2538428882,1.17288671447448,0.416593207938224,0.6537755267465,0.000565801479621987,"20140310_H"
37.2952,118.9798,8.9212,"F2-E-25-T30","F2","F","E","30","900","2014.02.25","Y",38.615125,173.0024875,8.5379875,0.366086783325436,1864.15317889847,1.06670261504369,0.412067959572364,0.899268969326989,0.00051457818599197,"20140310_H"
37.87,146.1696,8.4772,"F2-E-25-T45","F2","F","E","45","2025","2014.02.25","Y",39.621025,220.5846375,7.7609875,0.376134018005708,2372.51404853365,0.99167756706903,0.423377145488436,1.14450265530184,0.000478386043452619,"20140310_H"
36.205,713.0732,5.018,"S4-MU-075cm-C_rerun","S4","S","NA","NA","NA","2014.02.26","Y",36.707275,1212.6659375,1.7073875,0.347030598133313,12971.7684415529,0.407158094199822,0.390618282318184,6.25759136578925,0.00019641338698388,"20140310_H"
44.0604,779.2526,5.5064,"F1-M8-350cm-C_rerun","F1","F","NA","NA","NA","2014.02.25","Y",50.454225,1328.4798875,2.5620875,0.484339309524072,14209.1080812683,0.489685646971943,0.545173221505931,6.85448498757403,0.000236224743777165,"20140310_H"
28.0956,425.2912,3.184,"F1-K4-250cm-C_rerun","F1","F","NA","NA","NA","2014.02.25","Y",22.515825,709.0474375,-1.5021125,0.205282085753011,7591.18058193822,-0.342019803558265,0.231065894935096,3.66199152256813,-0.000164990624009236,"20140310_H"
