"N2Oraw","CO2raw","CH4raw","SampleName","Site","LUtype","Chamber","TimePt","TimePtSq","SampleDate","Pressure","N2Oc","CO2c","CH4c","N2Oppm","CO2ppm","CH4ppm","ngN_cm3_N2O","ngC_cm3_CO2","ngC_cm3_CH4","GCrun"
37.9524,70.9,7.4512,"Mix1","NA","NA","NA","NA","NA","NA","Y",37.622925,66.0740875,5.52085,0.301,600,0.720613216604594,0.338806156028369,0.28944047501237,0.000347624386190376,"20140416_V"
133.6034,69.7208,13.7846,"Mix2","NA","NA","NA","NA","NA","NA","Y",205.012175,64.0104875,16.6043,1.57,581.2610351978,1.79289476359187,1.76719490021442,0.280400783556389,0.000864893853368704,"20140416_V"
223.5864,45.6808,5.5228,"3N2O","NA","NA","NA","NA","NA","NA","Y",362.482425,21.9404875,2.14615,2.95820612698814,199.235328070176,0.394123853038379,3.32976228114426,0.0961112799931285,0.000190125658728557,"20140416_V"
626.37,44.6416,4.9948,"10N2O","NA","NA","NA","NA","NA","NA","Y",1067.353725,20.1218875,1.22215,8.80904923358544,182.721138600666,0.30473037452616,9.91548209001904,0.0881448219189629,0.000147002173922582,"20140416_V"
0,215.8012,5.5768,"3KCO2","NA","NA","NA","NA","NA","NA","Y",-28.793775,319.6511875,2.24065,-0.202513769850812,2997.51259179876,0.403266367886219,-0.227949873441752,1.44600244737632,0.000194536015129168,"20140416_V"
37.966,70.4474,10.2682,"amb","NA","NA","NA","NA","NA","NA","Y",37.646725,65.2820375,10.4506,0.301180430941653,592.807619174461,1.19754774116694,0.339009249429598,0.285970864808014,0.00057769797842225,"20140416_V"
38.1792,80.5452,10.3314,"amb","NA","NA","NA","NA","NA","NA","Y",38.019825,82.9531875,10.5612,0.304008951291675,770.820479433756,1.20824786965552,0.342193037160625,0.371844409527615,0.000582859728876299,"20140416_V"
38.386,93.46,10.6456,"amb","NA","NA","NA","NA","NA","NA","Y",38.381725,105.5540875,11.11105,0.306752562963273,983.434214076001,1.26144376160351,0.345281251526368,0.474409443442624,0.00060852146926652,"20140416_V"
39.0356,64.8856,8.8548,"amb","NA","NA","NA","NA","NA","NA","Y",39.518525,55.5488875,7.97715,0.315370793823379,504.423651707638,0.958250880316241,0.354981948102705,0.243334368929555,0.000462260983299591,"20140416_V"
34.5886,60.756,9.1704,"trav_dummy","NA","NA","NA","NA","NA","NA","Y",31.736275,48.3220875,8.52945,0.256372529299223,438.799135894234,1.01168380042695,0.288573392568572,0.211677050547074,0.000488037066263162,"20140416_V"
34.9732,73.0364,11.6004,"M1-A-06-T0","M1","M","A","0","0","2014.03.06","Y",32.409325,69.8127875,12.78195,0.261475010193307,647.204627025534,1.42309696857978,0.294316754488614,0.312212024460791,0.000686503104290657,"20140416_V"
35.6448,106.6354,11.3094,"M1-A-06-T15","M1","M","A","15","225","2014.03.06","Y",33.584625,128.6110375,12.2727,0.270385114635498,1200.33815369608,1.37382897189975,0.304345984508116,0.579044075635443,0.000662736183687365,"20140416_V"
40.0858,179.9112,12.0622,"M1-A-06-T30","M1","M","A","30","900","2014.03.06","Y",41.356375,256.8436875,13.5901,0.32930377727363,2406.6627965011,1.50128240111186,0.370664940012295,1.16097603835646,0.000724219818842549,"20140416_V"
44.054,214.9514,11.861,"M1-A-06-T45","M1","M","A","45","2025","2014.03.06","Y",48.300725,318.1640375,13.238,0.381949811293139,2983.52250664847,1.46721806801213,0.42992341315611,1.43925361922405,0.000707787157586939,"20140416_V"
36.8314,63.5624,11.3466,"M1-B-06-T0","M1","M","B","0","0","2014.03.06","Y",35.661175,53.2332875,12.3378,0.286127714294676,483.396346563242,1.38012714879493,0.322065883765324,0.233190780280849,0.000665774429207786,"20140416_V"
36.9636,84.6992,11.32,"M1-B-06-T15","M1","M","B","15","225","2014.03.06","Y",35.892525,90.2226875,12.29125,0.287881609183386,839.20693944118,1.37562361370321,0.324040071091974,0.404834091975888,0.000663601920314151,"20140416_V"
37.005,100.954,11.2348,"M1-B-06-T30","M1","M","B","30","900","2014.03.06","Y",35.964975,118.6685875,12.14215,0.288430862196945,1106.8064170841,1.36119875694329,0.324658311298655,0.533924291845935,0.000656643357993187,"20140416_V"
35.986,104.0692,10.5224,"M1-B-06-T45","M1","M","B","45","2025","2014.03.06","Y",34.181725,124.1201875,10.89545,0.274911808554014,1158.09132325048,1.240585283284,0.309441239544825,0.558664171182204,0.000598459322811793,"20140416_V"
34.8472,66.6604,11.206,"M1-C-06-T0","M1","M","C","0","0","2014.03.06","Y",32.188825,58.6547875,12.09175,0.259803370586821,532.627446425196,1.35632274902444,0.292435153859584,0.256939901829891,0.000654291167912861,"20140416_V"
36.9752,110.3816,10.8058,"M1-C-06-T15","M1","M","C","15","225","2014.03.06","Y",35.912825,135.1668875,11.3914,0.28803550616303,1262.01108496229,1.28856655565211,0.324213297816551,0.608795146503936,0.000621605526588333,"20140416_V"
36.918,147.4408,10.6116,"M1-C-06-T30","M1","M","C","30","900","2014.03.06","Y",35.812725,200.0204875,11.05155,0.28727663484961,1872.10918286964,1.25568736336599,0.323359110864324,0.90310695194135,0.000605744578199469,"20140416_V"
40.1544,174.4138,10.956,"M1-C-06-T45","M1","M","C","45","2025","2014.03.06","Y",41.476425,247.2232375,11.65425,0.330213892170495,2316.16021459335,1.31399629139555,0.371689367021434,1.11731752119442,0.000633872851243366,"20140416_V"
34.0748,61.5472,11.2808,"M1-D-06-T0","M1","M","D","0","0","2014.03.06","Y",30.837125,49.7066875,12.22265,0.249555954459441,451.372294774408,1.368986825147,0.280900643336857,0.21774235234488,0.000660400328260374,"20140416_V"
36.9292,87.4,10.5332,"M1-D-06-T15","M1","M","D","15","225","2014.03.06","Y",35.832325,94.9490875,10.91435,0.287425225036853,883.66966240412,1.24241378625357,0.323526364253572,0.426282944733782,0.000599341394091915,"20140416_V"
36.663,94.2636,10.5092,"M1-D-06-T30","M1","M","D","30","900","2014.03.06","Y",35.366475,106.9603875,10.87235,0.283893554693626,996.663717990774,1.23835044632119,0.319551109591285,0.480791366604741,0.000597381235691644,"20140416_V"
37.5296,87.6808,11.4256,"M1-D-06-T45","M1","M","D","45","2025","2014.03.06","Y",36.883025,95.4404875,12.47605,0.295390720431569,888.29241588753,1.39350230940565,0.332492340584287,0.428512964673954,0.000672226617275346,"20140416_V"
35.9336,60.4028,10.684,"M1-E-06-T0","M1","M","E","0","0","2014.03.06","Y",34.090025,47.7039875,11.17825,0.274216618749412,433.186345554905,1.26794510549531,0.308658732616562,0.208969436043807,0.000611657722706955,"20140416_V"
36.766,110.108,11.0368,"M1-E-06-T15","M1","M","E","15","225","2014.03.06","Y",35.546725,134.6880875,11.79565,0.285260053737023,1257.50686361948,1.3276762025012,0.321089243438827,0.60662230656223,0.000640472051190947,"20140416_V"
39.1808,153.7988,11.4104,"M1-E-06-T30","M1","M","E","30","900","2014.03.06","Y",39.772625,211.1469875,12.44945,0.317297159465139,1976.77964813859,1.39092886078182,0.357150268827589,0.953600067253366,0.000670985183621841,"20140416_V"
41.4368,197.7908,11.1722,"M1-E-06-T45","M1","M","E","45","2025","2014.03.06","Y",43.720625,288.1329875,12.0326,0.347227468609842,2701.01102720615,1.35060021195301,0.390839880090238,1.30296985788033,0.000651530611499145,"20140416_V"
33.3322,63.6004,11.4136,"M2-A-06-T0","M2","M","A","0","0","2014.03.06","Y",29.537575,53.2997875,12.45505,0.239703894365977,484.000214153544,1.39147063943947,0.269811146296235,0.233482086484484,0.00067124653807521,"20140416_V"
33.538,89.0924,10.2068,"M2-A-06-T15","M2","M","A","15","225","2014.03.06","Y",29.897725,97.9107875,10.34315,0.24243423905657,911.531300564102,1.18715236317328,0.272884427323652,0.439723421039862,0.000572683239848222,"20140416_V"
37.3568,116.3346,11.4308,"M2-A-06-T30","M2","M","A","30","900","2014.03.06","Y",36.580625,145.5846375,12.48515,0.293098186114103,1360.01411732247,1.39438269972434,0.329911859721616,0.656071886902242,0.000672651318262072,"20140416_V"
35.928,135.9352,10.7508,"M2-A-06-T45","M2","M","A","45","2025","2014.03.06","Y",34.080225,179.8856875,11.29515,0.274142323655791,1682.69482219044,1.27925473497375,0.308575105921938,0.81173331439276,0.000617113496921044,"20140416_V"
32.817,59.2436,10.8268,"M2-B-06-T0","M2","M","B","0","0","2014.03.06","Y",28.635975,45.6753875,11.42815,0.232868745752789,414.765205800232,1.29212197809294,0.262117490390864,0.200083063642371,0.000623320665188571,"20140416_V"
34.9278,112.596,10.9316,"M2-B-06-T15","M2","M","B","15","225","2014.03.06","Y",32.329875,139.0420875,11.61155,0.260872689255732,1298.46630331579,1.30986522913097,0.29363878092863,0.626381172698797,0.000631880023536423,"20140416_V"
35.1126,167.6656,10.3962,"M2-B-06-T30","M2","M","B","30","900","2014.03.06","Y",32.653275,235.4138875,10.6746,0.263324427345245,2205.06596581576,1.21921888747293,0.296398461851209,1.06372556763221,0.000588152156557032,"20140416_V"
34.4484,215.9524,10.4946,"M2-B-06-T45","M2","M","B","45","2025","2014.03.06","Y",31.490925,319.9157875,10.8468,0.254512498562483,3000.00176675137,1.23587858119566,0.286479738535317,1.44720322734411,0.000596188805998145,"20140416_V"
35.6526,61.0584,10.822,"M2-C-06-T0","M2","M","C","0","0","2014.03.06","Y",33.598275,48.8512875,11.41975,0.270488597087328,443.604650612844,1.29130931010646,0.304462464547056,0.213995234651797,0.000622928633508516,"20140416_V"
34.5932,109.47,10.378,"M2-C-06-T15","M2","M","C","15","225","2014.03.06","Y",31.744325,133.5715875,10.64275,0.256433557411841,1247.00359893851,1.21613752135755,0.28864208592487,0.60155552336483,0.000586665703103493,"20140416_V"
37.6352,156.4044,11.3632,"M2-C-06-T30","M2","M","C","30","900","2014.03.06","Y",37.067825,215.7067875,12.36685,0.296791713625577,2019.67511279804,1.38293762558148,0.334069301111475,0.974292873364878,0.00066713020543464,"20140416_V"
39.182,198.5204,10.888,"M2-C-06-T45","M2","M","C","45","2025","2014.03.06","Y",39.774725,289.4097875,11.53525,0.317313079842344,2713.02228412031,1.30248349492049,0.357168188833579,1.30876409772488,0.000628319069109263,"20140416_V"
35.1736,72.5246,11.56,"M2-D-06-T0","M2","M","D","0","0","2014.03.06","Y",32.760025,68.9171375,12.71125,0.26413371318648,638.778967364533,1.41625701302695,0.297309395489073,0.308147479569836,0.000683203504316867,"20140416_V"
34.2908,106.5866,10.2268,"M2-D-06-T15","M2","M","D","15","225","2014.03.06","Y",31.215125,128.5256375,10.37815,0.252421622356275,1199.53476918757,1.1905384797836,0.284126244415196,0.578656522312507,0.000574316705181782,"20140416_V"
35.7268,141.4624,10.3672,"M2-D-06-T30","M2","M","D","30","900","2014.03.06","Y",33.728125,189.5582875,10.62385,0.271473007077814,1773.6879954579,1.21430901838798,0.305570518250819,0.855628493215122,0.00058578363182337,"20140416_V"
37.0184,180.7796,10.6172,"M2-D-06-T45","M2","M","D","45","2025","2014.03.06","Y",35.988425,258.3633875,11.06135,0.288608639742397,2420.95908968128,1.25663547601687,0.324858418032219,1.16787258150477,0.000606201948492866,"20140416_V"
34.6056,57.9684,11.2168,"M2-E-06-T0","M2","M","E","0","0","2014.03.06","Y",31.766025,43.4437875,12.11065,0.256598067976289,394.500680769901,1.35815125199401,0.288827259320108,0.190307440724573,0.000655173239192983,"20140416_V"
34.818,138.9592,10.7076,"M2-E-06-T15","M2","M","E","15","225","2014.03.06","Y",32.137725,185.1776875,11.21955,0.259415974741508,1732.47832124254,1.27194072309548,0.291999100380475,0.835748913748459,0.000613585211800555,"20140416_V"
34.4716,191.1004,10.5112,"M2-E-06-T30","M2","M","E","30","900","2014.03.06","Y",31.531525,276.4247875,10.87585,0.254820292521772,2590.86832811282,1.23868905798222,0.286826191984472,1.24983693263913,0.000597544582225,"20140416_V"
34.4054,239.8482,10.0272,"M2-E-06-T45","M2","M","E","45","2025","2014.03.06","Y",31.415675,361.7334375,10.02885,0.253942018379317,3393.39347860631,1.15674503601269,0.285837604987315,1.63697570058615,0.000558014721152857,"20140416_V"
33.3704,56.9116,11.4152,"SM-A-06-T0","SM","S","A","0","0","2014.03.06","Y",29.604425,41.5943875,12.45785,0.240210693040324,377.706805258567,1.39174152876829,0.270381599820274,0.182206061882407,0.000671377215301895,"20140416_V"
34.8322,109.32,11.41,"SM-A-06-T15","SM","S","A","15","225","2014.03.06","Y",32.162575,133.3090875,12.44875,0.259604365871763,1244.53417934267,1.39086113844961,0.292211153784699,0.600364273396789,0.000670952514315169,"20140416_V"
36.5134,164.4372,10.9324,"SM-A-06-T30","SM","S","A","30","900","2014.03.06","Y",35.104675,229.7641875,11.61295,0.281908814335449,2151.91747099439,1.31000067379538,0.317317082177769,1.03808669165339,0.000631945362149765,"20140416_V"
37.5808,206.0756,10.9832,"SM-A-06-T45","SM","S","A","45","2025","2014.03.06","Y",36.972625,302.6313875,11.70185,0.296069989858967,2837.40201032351,1.31860140998557,0.33325692750656,1.36876497611515,0.000636094364097007,"20140416_V"
34.8366,61.8948,11.8672,"SM-B-06-T0","SM","S","B","0","0","2014.03.06","Y",32.170275,50.3149875,13.24885,0.25966274058818,456.896094100429,1.46826776416133,0.292276860473332,0.220407037512875,0.000708293531840343,"20140416_V"
33.1742,125.6918,11.0684,"SM-B-06-T15","SM","S","B","15","225","2014.03.06","Y",29.261075,161.9597375,11.85095,0.237607711367367,1514.05980427035,1.3330262667455,0.267451678840783,0.730383648241909,0.000643052926417971,"20140416_V"
35.8332,207.1846,10.731,"SM-B-06-T30","SM","S","B","30","900","2014.03.06","Y",33.914325,304.5721375,11.2605,0.272884613856625,2855.65925253541,1.27590247952954,0.307159425448667,1.3775722842122,0.00061549636624082,"20140416_V"
36.4204,269.1336,10.5134,"SM-B-06-T45","SM","S","B","45","2025","2014.03.06","Y",34.941925,412.9828875,10.8797,0.28067498510209,3875.51308281946,1.23906153080936,0.315928281713485,1.86955057934653,0.000597724263411691,"20140416_V"
34.9812,59.1532,10.8222,"SM-C-06-T0","SM","S","C","0","0","2014.03.06","Y",32.423325,45.5171875,11.4201,0.261581146041338,413.328636585409,1.29134317127256,0.29443622119522,0.199390061515827,0.000622944968161852,"20140416_V"
34.1142,121.366,11.016,"SM-C-06-T15","SM","S","C","15","225","2014.03.06","Y",30.906075,154.3895875,11.75925,0.250078673510993,1442.84503568582,1.32415464122648,0.281489016866887,0.696029587496907,0.000638773247244045,"20140416_V"
37.5772,189.5736,10.6116,"SM-C-06-T30","SM","S","C","30","900","2014.03.06","Y",36.966325,273.7528875,11.05155,0.296022228727353,2565.73292918665,1.25568736336599,0.333203167488588,1.23771159629777,0.000605744578199469,"20140416_V"
35.9826,225.7578,10.184,"SM-C-06-T45","SM","S","C","45","2025","2014.03.06","Y",34.175775,337.0752375,10.30325,0.274866700818601,3161.42607945161,1.18329219023753,0.309390466194518,1.52507444358828,0.000570821089367964,"20140416_V"
34.2908,58.6912,11.4454,"SM-D-06-T0","SM","S","D","0","0","2014.03.06","Y",31.215125,44.7086875,12.5107,0.252421622356275,405.986877987532,1.39685456484986,0.284126244415196,0.195848391355834,0.00067384374795557,"20140416_V"
37.1756,100.2942,11.8544,"SM-D-06-T15","SM","S","D","15","225","2014.03.06","Y",36.263525,117.5139375,13.22645,0.290694209156204,1095.94426342187,1.46610064953073,0.32720593881701,0.528684380319848,0.000707248114026865,"20140416_V"
37.414,125.0804,11.348,"SM-D-06-T30","SM","S","D","30","900","2014.03.06","Y",36.680725,160.8897875,12.34025,0.293857057427523,1503.99444999771,1.38036417695765,0.330766046673843,0.725528113372175,0.000665888771781135,"20140416_V"
34.1988,138.374,10.5592,"SM-D-06-T45","SM","S","D","45","2025","2014.03.06","Y",31.054125,184.1535875,10.95985,0.25120106010392,1722.84429225931,1.24681573784697,0.282752377289237,0.83110145053981,0.000601464899025543,"20140416_V"
35.8272,63.258,11.7014,"SM-E-06-T0","SM","S","E","0","0","2014.03.06","Y",33.903825,52.7005875,12.9587,0.272805011970602,478.559049339879,1.44019685746185,0.307069825418713,0.230857264270672,0.000694752104225133,"20140416_V"
33.9736,83.4216,10.095,"SM-E-06-T15","SM","S","E","15","225","2014.03.06","Y",30.660025,87.9868875,10.1475,0.248213335981851,818.174069603557,1.16822397132164,0.279389389498302,0.394687818914763,0.000563552168633624,"20140416_V"
34.1196,113.9148,9.7792,"SM-E-06-T30","SM","S","E","30","900","2014.03.06","Y",30.915525,141.3499875,9.59485,0.250150315208414,1320.1774404024,1.11475719004483,0.281569656893846,0.636854642417811,0.000537759751016717,"20140416_V"
36.7016,133.4588,9.8578,"SM-E-06-T45","SM","S","E","45","2025","2014.03.06","Y",35.434025,175.5519875,9.7324,0.284405660160375,1641.92635094287,1.12806462832335,0.320127536450655,0.792066571587054,0.000544179269777606,"20140416_V"
34.6896,67.202,11.0524,"F2-A-06-T0","F2","F","A","0","0","2014.03.06","Y",31.913025,59.6025875,11.82295,0.257712494380613,541.234148712232,1.33031737345725,0.290081659739462,0.261091781826973,0.000641746154151123,"20140416_V"
37.382,129.9136,11.4096,"F2-A-06-T15","F2","F","A","15","225","2014.03.06","Y",36.624725,169.3478875,12.44805,0.2934325140354,1583.56244193509,1.39079341611741,0.330288179847422,0.763911775675736,0.000670919845008498,"20140416_V"
38.6584,161.4372,10.2436,"F2-A-06-T30","F2","F","A","30","900","2014.03.06","Y",38.858425,224.5141875,10.40755,0.310366488588724,2102.52907907762,1.19338281773626,0.349349092886273,1.01426169229258,0.000575688816061972,"20140416_V"
40.3702,187.7068,9.7916,"F2-A-06-T45","F2","F","A","45","2025","2014.03.06","Y",41.854075,270.4859875,9.61655,0.333076906671128,2535.00017917657,1.11685658234322,0.374911981432108,1.22288609336218,0.000538772499523524,"20140416_V"
36.1152,67.4284,11.3892,"F2-B-06-T0","F2","F","B","0","0","2014.03.06","Y",34.407825,59.9987875,12.41235,0.276625902499713,544.831928250239,1.38733957717489,0.311370626856498,0.262827353524424,0.000669253710368268,"20140416_V"
37.6376,105.2672,10.9798,"F2-B-06-T15","F2","F","B","15","225","2014.03.06","Y",37.072025,126.2166875,11.6959,0.296823554379986,1177.81375442257,1.31802577016182,0.334105141123457,0.568178287593622,0.000635816674990302,"20140416_V"
43.3388,143.2644,11.4704,"F2-B-06-T30","F2","F","B","30","900","2014.03.06","Y",47.049125,192.7117875,12.55445,0.37246126647918,1803.35395620257,1.40108721061275,0.419243089585611,0.869939376164517,0.00067588557962252,"20140416_V"
50.6148,184.304,11.8444,"F2-B-06-T45","F2","F","B","45","2025","2014.03.06","Y",59.782125,264.5310875,13.20895,0.468991820263249,2478.9805725051,1.46440759122557,0.527898059242987,1.19586219075386,0.000706431381360085,"20140416_V"
36.3388,74.8332,11.6372,"F2-C-06-T0","F2","F","C","0","0","2014.03.06","Y",34.799125,72.9571875,12.84635,0.279592399452175,676.78498122422,1.42932742314275,0.314709721306112,0.326481610744627,0.000689508680504407,"20140416_V"
39.5776,119.8528,10.9184,"F2-C-06-T15","F2","F","C","15","225","2014.03.06","Y",40.467025,151.7414875,11.58845,0.32256149752747,1417.933530803,1.30763039216816,0.363075817475204,0.684012257819313,0.000630801936416274,"20140416_V"
41.8728,159.2624,10.131,"F2-C-06-T30","F2","F","C","30","900","2014.03.06","Y",44.483625,220.7082875,10.2105,0.353011872327524,2066.72578749742,1.17431898122021,0.397350815600219,0.996990156089279,0.000566492406234031,"20140416_V"
44.1412,197.0814,9.8258,"F2-C-06-T45","F2","F","C","45","2025","2014.03.06","Y",48.453325,286.8915375,9.6764,0.383106692036675,2689.33231879756,1.12264684174685,0.431225600258106,1.29733603969814,0.000541565725243911,"20140416_V"
34.3108,62.6928,11.1614,"F2-D-06-T0","F2","F","D","0","0","2014.03.06","Y",31.250125,51.7114875,12.0137,0.252686961976352,469.577313496762,1.34877170898344,0.284424911181709,0.226524467789226,0.000650648540219023,"20140416_V"
35.09,103.197,10.2768,"F2-D-06-T15","F2","F","D","15","225","2014.03.06","Y",32.613725,122.5938375,10.46565,0.263024593574558,1143.73247144054,1.19900377130937,0.29606096840505,0.55173744970137,0.000578400368515681,"20140416_V"
36.7604,147.5546,9.9256,"F2-D-06-T30","F2","F","D","30","900","2014.03.06","Y",35.536925,200.2196375,9.85105,0.285185758643402,1873.98264920302,1.13954356363231,0.321005616744203,0.90401071358377,0.000549716717258374,"20140416_V"
38.5636,167.796,9.3908,"F2-D-06-T45","F2","F","D","45","2025","2014.03.06","Y",38.692525,235.6420875,8.91515,0.309108778789558,2207.21271458441,1.04899880547258,0.347933412413002,1.06476116093776,0.000506037854238989,"20140416_V"
35.954,171.7084,11.1432,"F2-E-06-T45","F2","F","E","45","2025","2014.03.06","Y",34.125725,242.4887875,11.98185,0.274487265161891,2271.6217627628,1.34569034286806,0.308963372718405,1.09583213677084,0.000649162086765484,"20140416_V"
35.893,145.1764,11.9074,"F2-E-06-T30","F2","F","E","30","900","2014.03.06","Y",34.018975,196.0577875,13.3192,0.273677979320656,1834.83082465086,1.47507385854805,0.308052439080541,0.885123842423808,0.000711576797160798,"20140416_V"
36.0264,118.544,11.2584,"F2-E-06-T15","F2","F","E","15","225","2014.03.06","Y",34.252425,149.4510875,12.18345,0.27544779458657,1396.38702168944,1.36519437454345,0.310044546413181,0.673618204764836,0.000658570847086787,"20140416_V"
33.9124,75.06,11.4024,"F2-E-06-T0","F2","F","E","0","0","2014.03.06","Y",30.552925,73.3540875,12.43545,0.247401396744415,680.518743653128,1.38957441413769,0.278475469192773,0.328282780696305,0.000670331797488417,"20140416_V"
37.325,64.5084,11.1232,"M1-A-27-T0","M1","M","A","0","0","2014.03.27","Y",36.524975,54.8887875,11.94685,0.29267629611818,498.429471311276,1.34230422625775,0.329436979562861,0.240442771560834,0.000647528621431925,"20140416_V"
38.3552,145.9442,11.456,"M1-A-27-T15","M1","M","A","15","225","2014.03.27","Y",38.327825,197.4014375,12.52925,0.306343939948354,1847.4709604221,1.39864920665333,0.344821304705938,0.891221453926886,0.000674709484582357,"20140416_V"
37.556,219.5518,11.3516,"M1-A-27-T30","M1","M","A","30","900","2014.03.27","Y",36.929225,326.2147375,12.34655,0.295740968730071,3059.25795937311,1.3809736779475,0.332886580716084,1.47578846157721,0.000666182795541175,"20140416_V"
39.2924,264.9344,10.7404,"M1-A-27-T45","M1","M","A","45","2025","2014.03.27","Y",39.967925,405.6342875,11.27695,0.31877775454517,3806.38250437382,1.27749395433639,0.35881682938473,1.83620193357456,0.000616264094947593,"20140416_V"
37.2328,65.922,11.0968,"M1-B-27-T0","M1","M","B","0","0","2014.03.27","Y",36.363625,57.3625875,11.90065,0.291453080469624,520.893345670494,1.33783455233214,0.328060125769237,0.251279362336084,0.000645372447191626,"20140416_V"
36.8424,158.253,10.6288,"M1-B-27-T15","M1","M","B","15","225","2014.03.27","Y",35.680425,218.9418375,11.08165,0.286273651085718,2050.10823989715,1.25859942365085,0.322230150486906,0.988973837971011,0.00060714935838633,"20140416_V"
42.5812,236.0824,11.3648,"M1-B-27-T30","M1","M","B","30","900","2014.03.27","Y",45.723325,355.1432875,12.36965,0.362410201670657,3331.39787651291,1.38320851491031,0.407929592470104,1.60706897305516,0.000667260882661325,"20140416_V"
44.4524,304.2308,11.0638,"M1-B-27-T45","M1","M","B","45","2025","2014.03.27","Y",48.997925,474.4029875,11.8429,0.387235376525076,4453.31117241325,1.33224745992512,0.435872855145046,2.14828083520197,0.000642677229391252,"20140416_V"
36.9508,60.9196,10.8502,"M1-C-27-T0","M1","M","C","0","0","2014.03.27","Y",35.870125,48.6083875,11.4691,0.287711791826536,441.398944783006,1.296083734527,0.323848924361405,0.212931200413254,0.000625231819628835,"20140416_V"
37.953,149.67,10.6072,"M1-C-27-T15","M1","M","C","15","225","2014.03.27","Y",37.623975,203.9215875,11.04385,0.301007960188603,1908.80805062327,1.25494241771172,0.338815116031365,0.920810514799725,0.000605385215826086,"20140416_V"
